*FILE_COMMENT	""
*FILE_MD5	""
*FILE_MEMO	"Niフィルター"
*FILE_OPERATOR	"Administrator"
*FILE_PACKAGE_NAME	""
*FILE_PART_ID	"GeneralMeasurement"
*FILE_SAMPLE	"Cu"
*FILE_SYSTEM_NAME	"MiniFlex"
*FILE_TYPE	"RAS_RAW"
*FILE_USERGROUP	"Administrators"
*FILE_VERSION	"1"
*HW_ATTACHMENT_NAME_INTERNAL	"StandardSampleHolder"
*HW_COUNTER_ID-0	"CUT0025"
*HW_COUNTER_ID-2	"CMC0020"
*HW_COUNTER_MONOCHRO_ID	"CMC0020"
*HW_COUNTER_MONOCHRO_NAME	"None"
*HW_COUNTER_MONOCHRO_NAME_INTERNAL	"None"
*HW_COUNTER_NAME_INTERNAL	"DteX100"
*HW_COUNTER_NAME-0	"DteX100"
*HW_COUNTER_NAME-1	"None"
*HW_COUNTER_NAME-2	"None"
*HW_COUNTER_PIXEL_SIZE	"0.1"
*HW_COUNTER_SELECT_NAME	"DteX100"
*HW_GONIOMETER_ID	"GON0021"
*HW_GONIOMETER_NAME	"Standard"
*HW_GONIOMETER_NAME_INTERNAL	"Standard"
*HW_GONIOMETER_RADIUS-0	"90.0"
*HW_GONIOMETER_RADIUS-1	"114.0"
*HW_GONIOMETER_RADIUS-2	"91.5"
*HW_GONIOMETER_RADIUS-3	"150.0"
*HW_GONIOMETER_RADIUS-4	"103.4"
*HW_GONIOMETER_RADIUS-5	"150.0"
*HW_GONIOMETER_RADIUS-6	"46.6"
*HW_GONIOMETER_RADIUS-7	"150.0"
*HW_I_CBO_ID	"CBO0020"
*HW_I_CBO_NAME	"No_unit"
*HW_I_CBO_NAME_INTERNAL	"No_unit"
*HW_I_MONOCHRO_NAME_INTERNAL	"Manual"
*HW_I_OPT_ID-1	"CBO0020"
*HW_I_PRIMARY_NAME_INTERNAL	"No_unit"
*HW_I_SLIT_NAME_INTERNAL	"Manual"
*HW_R_ATTENUATER_AUTOMODE	"0"
*HW_R_ATTENUATER_ID	"ATN0020"
*HW_R_ATTENUATER_NAME	"No_unit"
*HW_R_ATTENUATOR_NAME_INTERNAL	"No_unit"
*HW_R_OPT_ID-1	"RCR0023"
*HW_R_OPT_ID-4	"ATN0020"
*HW_R_ROD_ID	"RCR0023"
*HW_R_ROD_NAME	"No_unit"
*HW_R_ROD_NAME_INTERNAL	"No_unit"
*HW_R_RPS_NAME_INTERNAL	"Manual"
*HW_R_RS_NAME_INTERNAL	"Manual"
*HW_R_SS_NAME_INTERNAL	"Manual"
*HW_SAMPLE_HOLDER_NAME_INTERNAL	"None"
*HW_SAMPLE_NAME	"None"
*HW_SAMPLE_NAME_INTERNAL	"None"
*HW_SAMPLE_PLATE_NAME	"None"
*HW_SAMPLE_PLATE_NAME_INTERNAL	"None"
*HW_SAMPLE_SPACER_NAME	"None"
*HW_SAMPLE_SPACER_NAME_INTERNAL	"None"
*HW_USERINFO_CATALOG_NO	""
*HW_USERINFO_INSTRUMENT_ID	""
*HW_USERINFO_INSTRUMENT_NAME	""
*HW_USERINFO_INSTRUMENT_NO	""
*HW_USERINFO_MODEL	""
*HW_USERINFO_ORDER_NO	""
*HW_USERINFO_SERIAL_NO	""
*HW_USERINFO_VERIFY_INSTRUMENT_ID	"00-07-fe-03-07-9c"
*HW_VER_RCD_COUNTER_UNIT	"N/A"
*HW_VER_RCD_CPU	"10.1.3"
*HW_VER_RCD_FPGA	"4.0.4"
*HW_VER_RCD_GONIO_UNIT	"0.0.0"
*HW_VER_RCD_INCIDENT_UNIT	"0.0.0"
*HW_VER_RCD_RECEIVING_UNIT	"0.0.0"
*HW_VER_RCD_TYPE	"RINCII"
*HW_VER_XGC_CPU	"10.1.3"
*HW_VER_XGC_CW	"5.5.6"
*HW_VER_XGC_HV	"5.5.6"
*HW_VER_XGC_RS1	"5.5.6"
*HW_VER_XGC_RS2	"N/A"
*HW_VER_XGC_RT	"N/A"
*HW_VER_XGC_TYPE	"RINCII"
*HW_XG_CURRENT_UNIT	"mA"
*HW_XG_FOCUS	"0.4mm x 12mm"
*HW_XG_FOCUS_TYPE	"LongFineToshiba"
*HW_XG_TARGET_ATOMIC_NUMBER	"29"
*HW_XG_TARGET_NAME	"Cu"
*HW_XG_TYPE	"Hermetic"
*HW_XG_VOLTAGE_UNIT	"kV"
*HW_XG_WAVE_LENGTH_ALPHA1	"1.540593"
*HW_XG_WAVE_LENGTH_ALPHA2	"1.544414"
*HW_XG_WAVE_LENGTH_BETA	"1.392246"
*HW_XG_WAVE_LENGTH_UNIT	"Angstrom"
*MEAS_COND_AXIS_NAME_INTERNAL-0	"TwoThetaTheta"
*MEAS_COND_AXIS_NAME_INTERNAL-1	"IncidentSollerSlit"
*MEAS_COND_AXIS_NAME_INTERNAL-10	"ReceivingSlitBox1"
*MEAS_COND_AXIS_NAME_INTERNAL-11	"ReceivingSlitBox1"
*MEAS_COND_AXIS_NAME_INTERNAL-12	"Filter"
*MEAS_COND_AXIS_NAME_INTERNAL-13	"ReceivingSollerSlit"
*MEAS_COND_AXIS_NAME_INTERNAL-14	"ReceivingSlitBox2"
*MEAS_COND_AXIS_NAME_INTERNAL-15	"ReceivingSlitBox2"
*MEAS_COND_AXIS_NAME_INTERNAL-16	"ReceivingSlitBox2"
*MEAS_COND_AXIS_NAME_INTERNAL-17	"PHA"
*MEAS_COND_AXIS_NAME_INTERNAL-18	"RS3"
*MEAS_COND_AXIS_NAME_INTERNAL-19	"Target_TargetTime"
*MEAS_COND_AXIS_NAME_INTERNAL-2	"IncidentSlitBox"
*MEAS_COND_AXIS_NAME_INTERNAL-20	"Target_XrayOnTime"
*MEAS_COND_AXIS_NAME_INTERNAL-21	"Target_IG"
*MEAS_COND_AXIS_NAME_INTERNAL-22	"Target_GP"
*MEAS_COND_AXIS_NAME_INTERNAL-23	"Target_FC"
*MEAS_COND_AXIS_NAME_INTERNAL-24	"HVPS_Bias"
*MEAS_COND_AXIS_NAME_INTERNAL-25	"HVPS_HVPSTime"
*MEAS_COND_AXIS_NAME_INTERNAL-26	"HVPS_Type1Time"
*MEAS_COND_AXIS_NAME_INTERNAL-27	"HVPS_Type2Time"
*MEAS_COND_AXIS_NAME_INTERNAL-28	"HVPS_Type3Time"
*MEAS_COND_AXIS_NAME_INTERNAL-29	"CW_IERTime"
*MEAS_COND_AXIS_NAME_INTERNAL-3	"IncidentSlitBox"
*MEAS_COND_AXIS_NAME_INTERNAL-30	"CW_WaterHose"
*MEAS_COND_AXIS_NAME_INTERNAL-31	"CW_CoolingWater"
*MEAS_COND_AXIS_NAME_INTERNAL-32	"CW_ECTime"
*MEAS_COND_AXIS_NAME_INTERNAL-33	"CW_Flow1"
*MEAS_COND_AXIS_NAME_INTERNAL-34	"CW_Temperature1"
*MEAS_COND_AXIS_NAME_INTERNAL-35	"CW_Pressure1"
*MEAS_COND_AXIS_NAME_INTERNAL-36	"CW_PressureIn"
*MEAS_COND_AXIS_NAME_INTERNAL-37	"CW_PressureOut"
*MEAS_COND_AXIS_NAME_INTERNAL-38	"CW_Flow2"
*MEAS_COND_AXIS_NAME_INTERNAL-39	"CW_Temperature2"
*MEAS_COND_AXIS_NAME_INTERNAL-4	"IncidentSlitBox"
*MEAS_COND_AXIS_NAME_INTERNAL-40	"CW_Pressure2"
*MEAS_COND_AXIS_NAME_INTERNAL-41	"RE_EnclosureTemp"
*MEAS_COND_AXIS_NAME_INTERNAL-42	"RE_EnclosureHummidity"
*MEAS_COND_AXIS_NAME_INTERNAL-43	"RE_CabinetTemp"
*MEAS_COND_AXIS_NAME_INTERNAL-44	"RE_RPTemp"
*MEAS_COND_AXIS_NAME_INTERNAL-45	"RE_ShutterAXrayOnTime"
*MEAS_COND_AXIS_NAME_INTERNAL-46	"RE_ShutterATimes"
*MEAS_COND_AXIS_NAME_INTERNAL-47	"RE_ShutterAOpenCloseTime"
*MEAS_COND_AXIS_NAME_INTERNAL-48	"RE_ShutterACloseOpenTime"
*MEAS_COND_AXIS_NAME_INTERNAL-49	"RE_ShutterBXrayOnTime"
*MEAS_COND_AXIS_NAME_INTERNAL-5	"IncidentAxdSlit"
*MEAS_COND_AXIS_NAME_INTERNAL-50	"RE_ShutterBTimes"
*MEAS_COND_AXIS_NAME_INTERNAL-51	"RE_ShutterBOpenCloseTime"
*MEAS_COND_AXIS_NAME_INTERNAL-52	"RE_ShutterBCloseOpenTime"
*MEAS_COND_AXIS_NAME_INTERNAL-53	"RE_XrayWarningRamp"
*MEAS_COND_AXIS_NAME_INTERNAL-54	"RE_ShutterAInstallation"
*MEAS_COND_AXIS_NAME_INTERNAL-55	"RE_ShutterARamp"
*MEAS_COND_AXIS_NAME_INTERNAL-56	"RE_ShutterBInstallation"
*MEAS_COND_AXIS_NAME_INTERNAL-57	"RE_ShutterBRamp"
*MEAS_COND_AXIS_NAME_INTERNAL-58	"RE_ExtShutterCLS"
*MEAS_COND_AXIS_NAME_INTERNAL-59	"RE_ExtXrayOFF"
*MEAS_COND_AXIS_NAME_INTERNAL-6	"IncidentAxdSlit"
*MEAS_COND_AXIS_NAME_INTERNAL-60	"RE_ExtSafetyCircuit"
*MEAS_COND_AXIS_NAME_INTERNAL-61	"Version_CPU"
*MEAS_COND_AXIS_NAME_INTERNAL-62	"Version_RS1"
*MEAS_COND_AXIS_NAME_INTERNAL-63	"Version_RS2"
*MEAS_COND_AXIS_NAME_INTERNAL-64	"Version_HV"
*MEAS_COND_AXIS_NAME_INTERNAL-65	"Version_CW"
*MEAS_COND_AXIS_NAME_INTERNAL-66	"Version_RT"
*MEAS_COND_AXIS_NAME_INTERNAL-67	"IncidentPrimary"
*MEAS_COND_AXIS_NAME_INTERNAL-68	"IncidentMonochromator"
*MEAS_COND_AXIS_NAME_INTERNAL-69	"ReceivingOptics"
*MEAS_COND_AXIS_NAME_INTERNAL-7	"IncidentAxdSlit"
*MEAS_COND_AXIS_NAME_INTERNAL-70	"CounterMonochromatorKind"
*MEAS_COND_AXIS_NAME_INTERNAL-8	"Filter"
*MEAS_COND_AXIS_NAME_INTERNAL-9	"ReceivingSlitBox1"
*MEAS_COND_AXIS_NAME-0	"TwoThetaTheta"
*MEAS_COND_AXIS_NAME-1	"IncidentSollerSlit"
*MEAS_COND_AXIS_NAME-10	"ReceivingSlitBox1-_Axis"
*MEAS_COND_AXIS_NAME-11	"SlitSS"
*MEAS_COND_AXIS_NAME-12	"Filter"
*MEAS_COND_AXIS_NAME-13	"ReceivingSollerSlit"
*MEAS_COND_AXIS_NAME-14	"ReceivingSlitBox2"
*MEAS_COND_AXIS_NAME-15	"ReceivingSlitBox2-_Axis"
*MEAS_COND_AXIS_NAME-16	"SlitRS"
*MEAS_COND_AXIS_NAME-17	"PHA"
*MEAS_COND_AXIS_NAME-18	"RS3"
*MEAS_COND_AXIS_NAME-19	"Target_TargetTime"
*MEAS_COND_AXIS_NAME-2	"IncidentSlitBox"
*MEAS_COND_AXIS_NAME-20	"Target_XrayOnTime"
*MEAS_COND_AXIS_NAME-21	"Target_IG"
*MEAS_COND_AXIS_NAME-22	"Target_GP"
*MEAS_COND_AXIS_NAME-23	"Target_FC"
*MEAS_COND_AXIS_NAME-24	"HVPS_Bias"
*MEAS_COND_AXIS_NAME-25	"HVPS_HVPSTime"
*MEAS_COND_AXIS_NAME-26	"HVPS_Type1Time"
*MEAS_COND_AXIS_NAME-27	"HVPS_Type2Time"
*MEAS_COND_AXIS_NAME-28	"HVPS_Type3Time"
*MEAS_COND_AXIS_NAME-29	"CW_IERTime"
*MEAS_COND_AXIS_NAME-3	"IncidentSlitBox-_Axis"
*MEAS_COND_AXIS_NAME-30	"CW_WaterHose"
*MEAS_COND_AXIS_NAME-31	"CW_CoolingWater"
*MEAS_COND_AXIS_NAME-32	"CW_ECTime"
*MEAS_COND_AXIS_NAME-33	"CW_Flow1"
*MEAS_COND_AXIS_NAME-34	"CW_Temperature1"
*MEAS_COND_AXIS_NAME-35	"CW_Pressure1"
*MEAS_COND_AXIS_NAME-36	"CW_PressureIn"
*MEAS_COND_AXIS_NAME-37	"CW_PressureOut"
*MEAS_COND_AXIS_NAME-38	"CW_Flow2"
*MEAS_COND_AXIS_NAME-39	"CW_Temperature2"
*MEAS_COND_AXIS_NAME-4	"SlitDS"
*MEAS_COND_AXIS_NAME-40	"CW_Pressure2"
*MEAS_COND_AXIS_NAME-41	"RE_EnclosureTemp"
*MEAS_COND_AXIS_NAME-42	"RE_EnclosureHummidity"
*MEAS_COND_AXIS_NAME-43	"RE_CabinetTemp"
*MEAS_COND_AXIS_NAME-44	"RE_RPTemp"
*MEAS_COND_AXIS_NAME-45	"RE_ShutterAXrayOnTime"
*MEAS_COND_AXIS_NAME-46	"RE_ShutterATimes"
*MEAS_COND_AXIS_NAME-47	"RE_ShutterAOpenCloseTime"
*MEAS_COND_AXIS_NAME-48	"RE_ShutterACloseOpenTime"
*MEAS_COND_AXIS_NAME-49	"RE_ShutterBXrayOnTime"
*MEAS_COND_AXIS_NAME-5	"IncidentAxdSlit"
*MEAS_COND_AXIS_NAME-50	"RE_ShutterBTimes"
*MEAS_COND_AXIS_NAME-51	"RE_ShutterBOpenCloseTime"
*MEAS_COND_AXIS_NAME-52	"RE_ShutterBCloseOpenTime"
*MEAS_COND_AXIS_NAME-53	"RE_XrayWarningRamp"
*MEAS_COND_AXIS_NAME-54	"RE_ShutterAInstallation"
*MEAS_COND_AXIS_NAME-55	"RE_ShutterARamp"
*MEAS_COND_AXIS_NAME-56	"RE_ShutterBInstallation"
*MEAS_COND_AXIS_NAME-57	"RE_ShutterBRamp"
*MEAS_COND_AXIS_NAME-58	"RE_ExtShutterCLS"
*MEAS_COND_AXIS_NAME-59	"RE_ExtXrayOFF"
*MEAS_COND_AXIS_NAME-6	"LLS"
*MEAS_COND_AXIS_NAME-60	"RE_ExtSafetyCircuit"
*MEAS_COND_AXIS_NAME-61	"Version_CPU"
*MEAS_COND_AXIS_NAME-62	"Version_RS1"
*MEAS_COND_AXIS_NAME-63	"Version_RS2"
*MEAS_COND_AXIS_NAME-64	"Version_HV"
*MEAS_COND_AXIS_NAME-65	"Version_CW"
*MEAS_COND_AXIS_NAME-66	"Version_RT"
*MEAS_COND_AXIS_NAME-67	"IncidentPrimary"
*MEAS_COND_AXIS_NAME-68	"IncidentMonochromator"
*MEAS_COND_AXIS_NAME-69	"ReceivingOptics"
*MEAS_COND_AXIS_NAME-7	"DHLSlit"
*MEAS_COND_AXIS_NAME-70	"CounterMonochromatorKind"
*MEAS_COND_AXIS_NAME-8	"Filter"
*MEAS_COND_AXIS_NAME-9	"ReceivingSlitBox1"
*MEAS_COND_AXIS_OFFSET-0	"0"
*MEAS_COND_AXIS_OFFSET-1	"0"
*MEAS_COND_AXIS_OFFSET-10	"0"
*MEAS_COND_AXIS_OFFSET-11	"0"
*MEAS_COND_AXIS_OFFSET-12	"0"
*MEAS_COND_AXIS_OFFSET-13	"0"
*MEAS_COND_AXIS_OFFSET-14	"0"
*MEAS_COND_AXIS_OFFSET-15	"0"
*MEAS_COND_AXIS_OFFSET-16	"0"
*MEAS_COND_AXIS_OFFSET-17	"0"
*MEAS_COND_AXIS_OFFSET-18	"0"
*MEAS_COND_AXIS_OFFSET-19	"0"
*MEAS_COND_AXIS_OFFSET-2	"0"
*MEAS_COND_AXIS_OFFSET-20	"0"
*MEAS_COND_AXIS_OFFSET-21	"0"
*MEAS_COND_AXIS_OFFSET-22	"0"
*MEAS_COND_AXIS_OFFSET-23	"0"
*MEAS_COND_AXIS_OFFSET-24	"0"
*MEAS_COND_AXIS_OFFSET-25	"0"
*MEAS_COND_AXIS_OFFSET-26	"0"
*MEAS_COND_AXIS_OFFSET-27	"0"
*MEAS_COND_AXIS_OFFSET-28	"0"
*MEAS_COND_AXIS_OFFSET-29	"0"
*MEAS_COND_AXIS_OFFSET-3	"0"
*MEAS_COND_AXIS_OFFSET-30	"0"
*MEAS_COND_AXIS_OFFSET-31	"0"
*MEAS_COND_AXIS_OFFSET-32	"0"
*MEAS_COND_AXIS_OFFSET-33	"0"
*MEAS_COND_AXIS_OFFSET-34	"0"
*MEAS_COND_AXIS_OFFSET-35	"0"
*MEAS_COND_AXIS_OFFSET-36	"0"
*MEAS_COND_AXIS_OFFSET-37	"0"
*MEAS_COND_AXIS_OFFSET-38	"0"
*MEAS_COND_AXIS_OFFSET-39	"0"
*MEAS_COND_AXIS_OFFSET-4	"0"
*MEAS_COND_AXIS_OFFSET-40	"0"
*MEAS_COND_AXIS_OFFSET-41	"0"
*MEAS_COND_AXIS_OFFSET-42	"0"
*MEAS_COND_AXIS_OFFSET-43	"0"
*MEAS_COND_AXIS_OFFSET-44	"0"
*MEAS_COND_AXIS_OFFSET-45	"0"
*MEAS_COND_AXIS_OFFSET-46	"0"
*MEAS_COND_AXIS_OFFSET-47	"0"
*MEAS_COND_AXIS_OFFSET-48	"0"
*MEAS_COND_AXIS_OFFSET-49	"0"
*MEAS_COND_AXIS_OFFSET-5	"0"
*MEAS_COND_AXIS_OFFSET-50	"0"
*MEAS_COND_AXIS_OFFSET-51	"0"
*MEAS_COND_AXIS_OFFSET-52	"0"
*MEAS_COND_AXIS_OFFSET-53	"0"
*MEAS_COND_AXIS_OFFSET-54	"0"
*MEAS_COND_AXIS_OFFSET-55	"0"
*MEAS_COND_AXIS_OFFSET-56	"0"
*MEAS_COND_AXIS_OFFSET-57	"0"
*MEAS_COND_AXIS_OFFSET-58	"0"
*MEAS_COND_AXIS_OFFSET-59	"0"
*MEAS_COND_AXIS_OFFSET-6	"0"
*MEAS_COND_AXIS_OFFSET-60	"0"
*MEAS_COND_AXIS_OFFSET-61	"0"
*MEAS_COND_AXIS_OFFSET-62	"0"
*MEAS_COND_AXIS_OFFSET-63	"0"
*MEAS_COND_AXIS_OFFSET-64	"0"
*MEAS_COND_AXIS_OFFSET-65	"0"
*MEAS_COND_AXIS_OFFSET-66	"0"
*MEAS_COND_AXIS_OFFSET-67	"0"
*MEAS_COND_AXIS_OFFSET-68	"0"
*MEAS_COND_AXIS_OFFSET-69	"0"
*MEAS_COND_AXIS_OFFSET-7	"0"
*MEAS_COND_AXIS_OFFSET-70	"0"
*MEAS_COND_AXIS_OFFSET-8	"0"
*MEAS_COND_AXIS_OFFSET-9	"0"
*MEAS_COND_AXIS_POSITION-0	"0.0000"
*MEAS_COND_AXIS_POSITION-1	"Soller_slit_2.5deg"
*MEAS_COND_AXIS_POSITION-10	"8.0mm"
*MEAS_COND_AXIS_POSITION-11	"8.0mm"
*MEAS_COND_AXIS_POSITION-12	"K_beta_x1.5"
*MEAS_COND_AXIS_POSITION-13	"Soller_slit_2.5deg"
*MEAS_COND_AXIS_POSITION-14	"Open"
*MEAS_COND_AXIS_POSITION-15	"Open"
*MEAS_COND_AXIS_POSITION-16	"Open"
*MEAS_COND_AXIS_POSITION-17	"36"
*MEAS_COND_AXIS_POSITION-18	"Open"
*MEAS_COND_AXIS_POSITION-19	""
*MEAS_COND_AXIS_POSITION-2	"1.25deg"
*MEAS_COND_AXIS_POSITION-20	"18.966667"
*MEAS_COND_AXIS_POSITION-21	"0.000000"
*MEAS_COND_AXIS_POSITION-22	""
*MEAS_COND_AXIS_POSITION-23	"0.000000"
*MEAS_COND_AXIS_POSITION-24	"0.000000"
*MEAS_COND_AXIS_POSITION-25	""
*MEAS_COND_AXIS_POSITION-26	""
*MEAS_COND_AXIS_POSITION-27	""
*MEAS_COND_AXIS_POSITION-28	""
*MEAS_COND_AXIS_POSITION-29	"0.000000"
*MEAS_COND_AXIS_POSITION-3	"1.25deg"
*MEAS_COND_AXIS_POSITION-30	""
*MEAS_COND_AXIS_POSITION-31	""
*MEAS_COND_AXIS_POSITION-32	""
*MEAS_COND_AXIS_POSITION-33	"4.330000"
*MEAS_COND_AXIS_POSITION-34	"0.000000"
*MEAS_COND_AXIS_POSITION-35	"0.000000"
*MEAS_COND_AXIS_POSITION-36	""
*MEAS_COND_AXIS_POSITION-37	""
*MEAS_COND_AXIS_POSITION-38	"0.000000"
*MEAS_COND_AXIS_POSITION-39	"0.000000"
*MEAS_COND_AXIS_POSITION-4	"1.25deg"
*MEAS_COND_AXIS_POSITION-40	"0.000000"
*MEAS_COND_AXIS_POSITION-41	"0.000000"
*MEAS_COND_AXIS_POSITION-42	""
*MEAS_COND_AXIS_POSITION-43	"38.000000"
*MEAS_COND_AXIS_POSITION-44	""
*MEAS_COND_AXIS_POSITION-45	""
*MEAS_COND_AXIS_POSITION-46	""
*MEAS_COND_AXIS_POSITION-47	""
*MEAS_COND_AXIS_POSITION-48	""
*MEAS_COND_AXIS_POSITION-49	""
*MEAS_COND_AXIS_POSITION-5	"10mm"
*MEAS_COND_AXIS_POSITION-50	"73.000000"
*MEAS_COND_AXIS_POSITION-51	"32.000000"
*MEAS_COND_AXIS_POSITION-52	"23.000000"
*MEAS_COND_AXIS_POSITION-53	""
*MEAS_COND_AXIS_POSITION-54	"OFF"
*MEAS_COND_AXIS_POSITION-55	""
*MEAS_COND_AXIS_POSITION-56	"ON"
*MEAS_COND_AXIS_POSITION-57	""
*MEAS_COND_AXIS_POSITION-58	""
*MEAS_COND_AXIS_POSITION-59	""
*MEAS_COND_AXIS_POSITION-6	"10mm"
*MEAS_COND_AXIS_POSITION-60	"OPEN"
*MEAS_COND_AXIS_POSITION-61	"10.1.3"
*MEAS_COND_AXIS_POSITION-62	"5.5.6"
*MEAS_COND_AXIS_POSITION-63	"N/A"
*MEAS_COND_AXIS_POSITION-64	"5.5.6"
*MEAS_COND_AXIS_POSITION-65	"5.5.6"
*MEAS_COND_AXIS_POSITION-66	"N/A"
*MEAS_COND_AXIS_POSITION-67	"No_unit"
*MEAS_COND_AXIS_POSITION-68	"Manual"
*MEAS_COND_AXIS_POSITION-69	"No_unit"
*MEAS_COND_AXIS_POSITION-7	"10mm"
*MEAS_COND_AXIS_POSITION-70	"None"
*MEAS_COND_AXIS_POSITION-8	"None"
*MEAS_COND_AXIS_POSITION-9	"8.0mm"
*MEAS_COND_AXIS_RESOLUTION-0	"0.0025"
*MEAS_COND_AXIS_RESOLUTION-1	""
*MEAS_COND_AXIS_RESOLUTION-10	""
*MEAS_COND_AXIS_RESOLUTION-11	""
*MEAS_COND_AXIS_RESOLUTION-12	""
*MEAS_COND_AXIS_RESOLUTION-13	""
*MEAS_COND_AXIS_RESOLUTION-14	""
*MEAS_COND_AXIS_RESOLUTION-15	""
*MEAS_COND_AXIS_RESOLUTION-16	""
*MEAS_COND_AXIS_RESOLUTION-17	"1"
*MEAS_COND_AXIS_RESOLUTION-18	"0.1"
*MEAS_COND_AXIS_RESOLUTION-19	"0.01"
*MEAS_COND_AXIS_RESOLUTION-2	""
*MEAS_COND_AXIS_RESOLUTION-20	"0.010000"
*MEAS_COND_AXIS_RESOLUTION-21	"1"
*MEAS_COND_AXIS_RESOLUTION-22	"1"
*MEAS_COND_AXIS_RESOLUTION-23	"0.01"
*MEAS_COND_AXIS_RESOLUTION-24	"1"
*MEAS_COND_AXIS_RESOLUTION-25	"0.01"
*MEAS_COND_AXIS_RESOLUTION-26	"0.01"
*MEAS_COND_AXIS_RESOLUTION-27	"0.01"
*MEAS_COND_AXIS_RESOLUTION-28	"0.01"
*MEAS_COND_AXIS_RESOLUTION-29	"0.010000"
*MEAS_COND_AXIS_RESOLUTION-3	""
*MEAS_COND_AXIS_RESOLUTION-30	"0.01"
*MEAS_COND_AXIS_RESOLUTION-31	"0.01"
*MEAS_COND_AXIS_RESOLUTION-32	"1"
*MEAS_COND_AXIS_RESOLUTION-33	"0.100000"
*MEAS_COND_AXIS_RESOLUTION-34	"1.000000"
*MEAS_COND_AXIS_RESOLUTION-35	"0.010000"
*MEAS_COND_AXIS_RESOLUTION-36	"0.01"
*MEAS_COND_AXIS_RESOLUTION-37	"0.01"
*MEAS_COND_AXIS_RESOLUTION-38	"0.1"
*MEAS_COND_AXIS_RESOLUTION-39	"1"
*MEAS_COND_AXIS_RESOLUTION-4	""
*MEAS_COND_AXIS_RESOLUTION-40	"0.01"
*MEAS_COND_AXIS_RESOLUTION-41	"1.000000"
*MEAS_COND_AXIS_RESOLUTION-42	"1"
*MEAS_COND_AXIS_RESOLUTION-43	"1.000000"
*MEAS_COND_AXIS_RESOLUTION-44	"1"
*MEAS_COND_AXIS_RESOLUTION-45	"0.01"
*MEAS_COND_AXIS_RESOLUTION-46	"1"
*MEAS_COND_AXIS_RESOLUTION-47	"1"
*MEAS_COND_AXIS_RESOLUTION-48	"1"
*MEAS_COND_AXIS_RESOLUTION-49	"0.01"
*MEAS_COND_AXIS_RESOLUTION-5	""
*MEAS_COND_AXIS_RESOLUTION-50	"1.000000"
*MEAS_COND_AXIS_RESOLUTION-51	"1.000000"
*MEAS_COND_AXIS_RESOLUTION-52	"1.000000"
*MEAS_COND_AXIS_RESOLUTION-53	"-"
*MEAS_COND_AXIS_RESOLUTION-54	"-"
*MEAS_COND_AXIS_RESOLUTION-55	"-"
*MEAS_COND_AXIS_RESOLUTION-56	"1.000000"
*MEAS_COND_AXIS_RESOLUTION-57	"-"
*MEAS_COND_AXIS_RESOLUTION-58	"-"
*MEAS_COND_AXIS_RESOLUTION-59	"-"
*MEAS_COND_AXIS_RESOLUTION-6	""
*MEAS_COND_AXIS_RESOLUTION-60	"1.000000"
*MEAS_COND_AXIS_RESOLUTION-61	"1.000000"
*MEAS_COND_AXIS_RESOLUTION-62	"1.000000"
*MEAS_COND_AXIS_RESOLUTION-63	"1.000000"
*MEAS_COND_AXIS_RESOLUTION-64	"1.000000"
*MEAS_COND_AXIS_RESOLUTION-65	"1.000000"
*MEAS_COND_AXIS_RESOLUTION-66	"1.000000"
*MEAS_COND_AXIS_RESOLUTION-7	""
*MEAS_COND_AXIS_RESOLUTION-8	""
*MEAS_COND_AXIS_RESOLUTION-9	""
*MEAS_COND_AXIS_STATE-0	"Scan"
*MEAS_COND_AXIS_STATE-1	"Fixed"
*MEAS_COND_AXIS_STATE-10	"Fixed"
*MEAS_COND_AXIS_STATE-11	"Fixed"
*MEAS_COND_AXIS_STATE-12	"Fixed"
*MEAS_COND_AXIS_STATE-13	"Fixed"
*MEAS_COND_AXIS_STATE-14	"Fixed"
*MEAS_COND_AXIS_STATE-15	"Fixed"
*MEAS_COND_AXIS_STATE-16	"Fixed"
*MEAS_COND_AXIS_STATE-17	"Fixed"
*MEAS_COND_AXIS_STATE-18	"Fixed"
*MEAS_COND_AXIS_STATE-19	"Fixed"
*MEAS_COND_AXIS_STATE-2	"Fixed"
*MEAS_COND_AXIS_STATE-20	"Fixed"
*MEAS_COND_AXIS_STATE-21	"Fixed"
*MEAS_COND_AXIS_STATE-22	"Fixed"
*MEAS_COND_AXIS_STATE-23	"Fixed"
*MEAS_COND_AXIS_STATE-24	"Fixed"
*MEAS_COND_AXIS_STATE-25	"Fixed"
*MEAS_COND_AXIS_STATE-26	"Fixed"
*MEAS_COND_AXIS_STATE-27	"Fixed"
*MEAS_COND_AXIS_STATE-28	"Fixed"
*MEAS_COND_AXIS_STATE-29	"Fixed"
*MEAS_COND_AXIS_STATE-3	"Fixed"
*MEAS_COND_AXIS_STATE-30	"Fixed"
*MEAS_COND_AXIS_STATE-31	"Fixed"
*MEAS_COND_AXIS_STATE-32	"Fixed"
*MEAS_COND_AXIS_STATE-33	"Fixed"
*MEAS_COND_AXIS_STATE-34	"Fixed"
*MEAS_COND_AXIS_STATE-35	"Fixed"
*MEAS_COND_AXIS_STATE-36	"Fixed"
*MEAS_COND_AXIS_STATE-37	"Fixed"
*MEAS_COND_AXIS_STATE-38	"Fixed"
*MEAS_COND_AXIS_STATE-39	"Fixed"
*MEAS_COND_AXIS_STATE-4	"Fixed"
*MEAS_COND_AXIS_STATE-40	"Fixed"
*MEAS_COND_AXIS_STATE-41	"Fixed"
*MEAS_COND_AXIS_STATE-42	"Fixed"
*MEAS_COND_AXIS_STATE-43	"Fixed"
*MEAS_COND_AXIS_STATE-44	"Fixed"
*MEAS_COND_AXIS_STATE-45	"Fixed"
*MEAS_COND_AXIS_STATE-46	"Fixed"
*MEAS_COND_AXIS_STATE-47	"Fixed"
*MEAS_COND_AXIS_STATE-48	"Fixed"
*MEAS_COND_AXIS_STATE-49	"Fixed"
*MEAS_COND_AXIS_STATE-5	"Fixed"
*MEAS_COND_AXIS_STATE-50	"Fixed"
*MEAS_COND_AXIS_STATE-51	"Fixed"
*MEAS_COND_AXIS_STATE-52	"Fixed"
*MEAS_COND_AXIS_STATE-53	"Fixed"
*MEAS_COND_AXIS_STATE-54	"Fixed"
*MEAS_COND_AXIS_STATE-55	"Fixed"
*MEAS_COND_AXIS_STATE-56	"Fixed"
*MEAS_COND_AXIS_STATE-57	"Fixed"
*MEAS_COND_AXIS_STATE-58	"Fixed"
*MEAS_COND_AXIS_STATE-59	"Fixed"
*MEAS_COND_AXIS_STATE-6	"Fixed"
*MEAS_COND_AXIS_STATE-60	"Fixed"
*MEAS_COND_AXIS_STATE-61	"Fixed"
*MEAS_COND_AXIS_STATE-62	"Fixed"
*MEAS_COND_AXIS_STATE-63	"Fixed"
*MEAS_COND_AXIS_STATE-64	"Fixed"
*MEAS_COND_AXIS_STATE-65	"Fixed"
*MEAS_COND_AXIS_STATE-66	"Fixed"
*MEAS_COND_AXIS_STATE-7	"Fixed"
*MEAS_COND_AXIS_STATE-8	"Fixed"
*MEAS_COND_AXIS_STATE-9	"Fixed"
*MEAS_COND_AXIS_UNIT-0	"deg"
*MEAS_COND_AXIS_UNIT-1	""
*MEAS_COND_AXIS_UNIT-10	""
*MEAS_COND_AXIS_UNIT-11	""
*MEAS_COND_AXIS_UNIT-12	""
*MEAS_COND_AXIS_UNIT-13	""
*MEAS_COND_AXIS_UNIT-14	""
*MEAS_COND_AXIS_UNIT-15	""
*MEAS_COND_AXIS_UNIT-16	""
*MEAS_COND_AXIS_UNIT-17	"div"
*MEAS_COND_AXIS_UNIT-18	""
*MEAS_COND_AXIS_UNIT-19	"H"
*MEAS_COND_AXIS_UNIT-2	""
*MEAS_COND_AXIS_UNIT-20	"H"
*MEAS_COND_AXIS_UNIT-21	"mV"
*MEAS_COND_AXIS_UNIT-22	"V"
*MEAS_COND_AXIS_UNIT-23	"V"
*MEAS_COND_AXIS_UNIT-24	"V"
*MEAS_COND_AXIS_UNIT-25	"H"
*MEAS_COND_AXIS_UNIT-26	"H"
*MEAS_COND_AXIS_UNIT-27	"H"
*MEAS_COND_AXIS_UNIT-28	"H"
*MEAS_COND_AXIS_UNIT-29	"H"
*MEAS_COND_AXIS_UNIT-3	""
*MEAS_COND_AXIS_UNIT-30	"H"
*MEAS_COND_AXIS_UNIT-31	"H"
*MEAS_COND_AXIS_UNIT-32	"uS/m"
*MEAS_COND_AXIS_UNIT-33	"L/min"
*MEAS_COND_AXIS_UNIT-34	"degree"
*MEAS_COND_AXIS_UNIT-35	"MPa"
*MEAS_COND_AXIS_UNIT-36	"MPa"
*MEAS_COND_AXIS_UNIT-37	"MPa"
*MEAS_COND_AXIS_UNIT-38	"L/min"
*MEAS_COND_AXIS_UNIT-39	"C"
*MEAS_COND_AXIS_UNIT-4	""
*MEAS_COND_AXIS_UNIT-40	"MPa"
*MEAS_COND_AXIS_UNIT-41	"degree"
*MEAS_COND_AXIS_UNIT-42	"percent"
*MEAS_COND_AXIS_UNIT-43	"degree"
*MEAS_COND_AXIS_UNIT-44	"C"
*MEAS_COND_AXIS_UNIT-45	"H"
*MEAS_COND_AXIS_UNIT-46	"time"
*MEAS_COND_AXIS_UNIT-47	"msec"
*MEAS_COND_AXIS_UNIT-48	"msec"
*MEAS_COND_AXIS_UNIT-49	"H"
*MEAS_COND_AXIS_UNIT-5	""
*MEAS_COND_AXIS_UNIT-50	"times"
*MEAS_COND_AXIS_UNIT-51	"msec"
*MEAS_COND_AXIS_UNIT-52	"msec"
*MEAS_COND_AXIS_UNIT-53	"-"
*MEAS_COND_AXIS_UNIT-54	"-"
*MEAS_COND_AXIS_UNIT-55	"-"
*MEAS_COND_AXIS_UNIT-56	""
*MEAS_COND_AXIS_UNIT-57	"-"
*MEAS_COND_AXIS_UNIT-58	"-"
*MEAS_COND_AXIS_UNIT-59	"-"
*MEAS_COND_AXIS_UNIT-6	""
*MEAS_COND_AXIS_UNIT-60	""
*MEAS_COND_AXIS_UNIT-61	""
*MEAS_COND_AXIS_UNIT-62	""
*MEAS_COND_AXIS_UNIT-63	""
*MEAS_COND_AXIS_UNIT-64	""
*MEAS_COND_AXIS_UNIT-65	""
*MEAS_COND_AXIS_UNIT-66	""
*MEAS_COND_AXIS_UNIT-67	""
*MEAS_COND_AXIS_UNIT-68	""
*MEAS_COND_AXIS_UNIT-69	""
*MEAS_COND_AXIS_UNIT-7	""
*MEAS_COND_AXIS_UNIT-70	""
*MEAS_COND_AXIS_UNIT-8	""
*MEAS_COND_AXIS_UNIT-9	""
*MEAS_COND_COUNTER_ADJUSTMENTMETHOD	""
*MEAS_COND_COUNTER_CENTER_X	"0.5"
*MEAS_COND_COUNTER_CENTER_Y	"63.28"
*MEAS_COND_COUNTER_COUNTMODE	"Differential"
*MEAS_COND_COUNTER_DEADTIMECORRECTION	"Enabled"
*MEAS_COND_COUNTER_DISTANCE	"150"
*MEAS_COND_COUNTER_ENERGYMODE	"Standard"
*MEAS_COND_COUNTER_PHA_UNIT	"div"
*MEAS_COND_COUNTER_PHABASE	"36"
*MEAS_COND_COUNTER_PHAWINDOW	"26"
*MEAS_COND_COUNTER_PITCH_X	"20"
*MEAS_COND_COUNTER_PITCH_Y	"0.1"
*MEAS_COND_COUNTER_PITCHUNIT	"mm"
*MEAS_COND_COUNTER_VALIDWIDTH_X	"1"
*MEAS_COND_COUNTER_VALIDWIDTH_Y	"200"
*MEAS_COND_XG_CURRENT	"15"
*MEAS_COND_XG_VOLTAGE	"40"
*MEAS_COND_XG_WAVE_TYPE	"Ka"
*MEAS_DATA_COUNT	"9001"
*MEAS_SCAN_AXIS_X	"TwoThetaTheta"
*MEAS_SCAN_AXIS_X_INTERNAL	"TwoThetaTheta"
*MEAS_SCAN_END_TIME "04/19/2024 14:47:50"
*MEAS_SCAN_MODE	"CONTINUOUS"
*MEAS_SCAN_MODE_INTERNAL	"TDI_1D"
*MEAS_SCAN_RESOLUTION_X	"0.0025"
*MEAS_SCAN_SPEED	"10.0000"
*MEAS_SCAN_SPEED_UNIT	"deg/min"
*MEAS_SCAN_START	"10.0000"
*MEAS_SCAN_START_TIME "04/19/2024 14:38:11"
*MEAS_SCAN_STEP	"0.0100"
*MEAS_SCAN_STOP	"100.0000"
*MEAS_SCAN_UNEQUALY_SPACED	"False"
*MEAS_SCAN_UNIT_X	"deg"
*MEAS_SCAN_UNIT_Y	"cps"
#Intensity_unit=cps
#Attenuator_coefficient=1.0000
10.0000	6388.4050
10.0100	6583.3325
10.0200	6588.3125
10.0300	6659.7800
10.0400	6891.7675
10.0500	6803.5475
10.0600	6639.2250
10.0700	6280.5200
10.0800	6708.5625
10.0900	6649.4750
10.1000	6798.3925
10.1100	6791.3400
10.1200	6836.3625
10.1300	6546.8225
10.1400	6538.8150
10.1500	6724.7925
10.1600	6492.7475
10.1700	6573.9575
10.1800	6505.1200
10.1900	6708.9175
10.2000	6661.1100
10.2100	6917.9675
10.2200	6809.5100
10.2300	7208.9550
10.2400	6948.4600
10.2500	6775.7300
10.2600	6833.5750
10.2700	6514.9775
10.2800	6686.0500
10.2900	6871.4575
10.3000	6772.1700
10.3100	7035.3175
10.3200	7363.3750
10.3300	6941.0375
10.3400	6530.4900
10.3500	6835.5450
10.3600	6699.1600
10.3700	6885.2875
10.3800	7066.2250
10.3900	6890.4300
10.4000	6953.9525
10.4100	6840.5700
10.4200	7098.6000
10.4300	7091.6900
10.4400	7183.3325
10.4500	7158.4975
10.4600	6875.0950
10.4700	6812.0325
10.4800	7111.5725
10.4900	6873.4325
10.5000	6950.0000
10.5100	6935.2575
10.5200	6785.3375
10.5300	6988.0575
10.5400	6826.2350
10.5500	6556.5675
10.5600	6663.3975
10.5700	6989.3575
10.5800	6657.6100
10.5900	6569.3075
10.6000	6812.8050
10.6100	6952.6525
10.6200	6769.3925
10.6300	6615.1275
10.6400	6857.6825
10.6500	7525.5050
10.6600	6993.0950
10.6700	6717.2750
10.6800	6941.9250
10.6900	7056.1025
10.7000	7140.6175
10.7100	7238.1625
10.7200	7259.1800
10.7300	6759.6000
10.7400	7086.9400
10.7500	6902.5000
10.7600	6730.7525
10.7700	6924.8375
10.7800	7040.2950
10.7900	7122.9500
10.8000	7003.9800
10.8100	7283.3325
10.8200	7309.4050
10.8300	7650.8900
10.8400	7395.2500
10.8500	6890.0475
10.8600	7167.9725
10.8700	6527.3300
10.8800	7157.6525
10.8900	7271.0125
10.9000	7335.4925
10.9100	7357.0100
10.9200	7208.1375
10.9300	7102.4025
10.9400	7347.5425
10.9500	6834.4475
10.9600	7108.3125
10.9700	7227.1400
10.9800	7128.2050
10.9900	7042.8675
11.0000	6930.2975
11.0100	6887.3550
11.0200	6956.9900
11.0300	7090.4650
11.0400	7456.8175
11.0500	7276.5275
11.0600	6919.4250
11.0700	7231.4050
11.0800	7208.6175
11.0900	7343.3450
11.1000	7215.4000
11.1100	6922.2900
11.1200	7000.8525
11.1300	6737.0275
11.1400	6828.4150
11.1500	7301.2000
11.1600	7057.7125
11.1700	7491.3975
11.1800	7636.8900
11.1900	7694.7050
11.2000	7569.3575
11.2100	7015.7975
11.2200	7025.8525
11.2300	7490.5950
11.2400	7333.6275
11.2500	7636.5425
11.2600	7382.5000
11.2700	7394.7975
11.2800	7940.7175
11.2900	8073.5700
11.3000	7851.8725
11.3100	7239.7325
11.3200	7370.6300
11.3300	7462.5750
11.3400	7690.1775
11.3500	7146.1400
11.3600	7075.0850
11.3700	7239.3825
11.3800	7005.3950
11.3900	6782.3000
11.4000	7140.2675
11.4100	7643.4250
11.4200	7486.9750
11.4300	7206.4500
11.4400	7353.5500
11.4500	7439.6600
11.4600	7589.5975
11.4700	7721.6225
11.4800	7460.9125
11.4900	7688.9925
11.5000	7060.0550
11.5100	7690.7450
11.5200	7486.2900
11.5300	7949.8425
11.5400	7527.5725
11.5500	7387.7650
11.5600	7496.2425
11.5700	7405.5725
11.5800	7545.1025
11.5900	7424.5350
11.6000	7642.3050
11.6100	7865.5975
11.6200	7378.6600
11.6300	7251.1550
11.6400	7284.4725
11.6500	7317.2300
11.6600	7323.3250
11.6700	7039.3725
11.6800	7227.5075
11.6900	7548.3950
11.7000	7494.7200
11.7100	7323.9575
11.7200	7024.5975
11.7300	6775.3400
11.7400	7571.3400
11.7500	7193.1875
11.7600	7514.7250
11.7700	7463.8775
11.7800	7927.2025
11.7900	7715.2725
11.8000	7655.2325
11.8100	7250.0000
11.8200	7246.8975
11.8300	7144.2375
11.8400	7559.4400
11.8500	7913.7125
11.8600	7792.1175
11.8700	7479.2550
11.8800	7319.0700
11.8900	7427.2925
11.9000	7873.2350
11.9100	8136.7225
11.9200	7567.4100
11.9300	7600.7300
11.9400	7635.1225
11.9500	7719.1225
11.9600	7826.4600
11.9700	7497.6450
11.9800	7389.2625
11.9900	7680.4325
12.0000	7528.2900
12.0100	7279.2950
12.0200	7951.2025
12.0300	8013.7300
12.0400	7849.4275
12.0500	7810.5200
12.0600	7448.9100
12.0700	7379.8875
12.0800	7167.1825
12.0900	7205.7675
12.1000	7587.9600
12.1100	7900.0000
12.1200	7889.0000
12.1300	7104.2175
12.1400	7420.5325
12.1500	7719.1575
12.1600	7915.8650
12.1700	7849.4200
12.1800	7797.9550
12.1900	7619.5275
12.2000	7885.0500
12.2100	8052.7950
12.2200	8329.8750
12.2300	7966.5175
12.2400	7949.7150
12.2500	7913.9575
12.2600	7584.7450
12.2700	7765.4575
12.2800	7600.1150
12.2900	7616.0275
12.3000	7517.5600
12.3100	7666.7575
12.3200	7683.8425
12.3300	7782.9450
12.3400	7700.9850
12.3500	7933.7125
12.3600	8032.8325
12.3700	7883.0900
12.3800	7799.5050
12.3900	7599.6950
12.4000	7450.9600
12.4100	8049.8650
12.4200	7932.8750
12.4300	7300.1825
12.4400	7933.2375
12.4500	8333.0975
12.4600	8266.7350
12.4700	8150.1700
12.4800	7883.8400
12.4900	8082.8650
12.5000	8083.3325
12.5100	8133.1725
12.5200	8249.5725
12.5300	8399.3850
12.5400	7985.2250
12.5500	7751.1625
12.5600	7915.7650
12.5700	7833.8225
12.5800	7601.4700
12.5900	7633.1075
12.6000	7815.3500
12.6100	8263.2375
12.6200	7754.1650
12.6300	7402.9750
12.6400	7746.8700
12.6500	7436.3050
12.6600	7862.4075
12.6700	7998.6300
12.6800	7554.8200
12.6900	7714.8075
12.7000	8260.2875
12.7100	8892.3750
12.7200	8504.9925
12.7300	7841.9525
12.7400	8096.4350
12.7500	7869.8900
12.7600	7899.5250
12.7700	7982.1075
12.7800	7572.9775
12.7900	8403.4125
12.8000	7711.4925
12.8100	7700.0000
12.8200	8060.4600
12.8300	8148.5525
12.8400	8035.4125
12.8500	8164.2325
12.8600	7626.9575
12.8700	7731.0975
12.8800	7880.3925
12.8900	7752.6725
12.9000	8468.3025
12.9100	8352.7925
12.9200	8023.7975
12.9300	8000.3650
12.9400	8195.5425
12.9500	8118.5600
12.9600	8279.4700
12.9700	8055.5125
12.9800	8017.4700
12.9900	7919.1200
13.0000	8209.1750
13.0100	8801.4125
13.0200	8427.0150
13.0300	7913.6000
13.0400	7705.3550
13.0500	7813.4900
13.0600	7978.7225
13.0700	8193.9075
13.0800	8005.7150
13.0900	8420.7575
13.1000	8271.5775
13.1100	8363.6750
13.1200	8318.1850
13.1300	8704.3375
13.1400	8248.4500
13.1500	8297.8850
13.1600	8235.4775
13.1700	8249.4550
13.1800	8346.6925
13.1900	8269.4625
13.2000	8443.7700
13.2100	8289.0725
13.2200	8315.5025
13.2300	8445.2875
13.2400	8578.5600
13.2500	8246.0225
13.2600	8185.1675
13.2700	8424.0425
13.2800	8176.6975
13.2900	8343.0200
13.3000	8526.2700
13.3100	8549.3500
13.3200	8662.0650
13.3300	8298.6250
13.3400	8171.3725
13.3500	8182.6525
13.3600	8486.9350
13.3700	8452.0850
13.3800	8370.1800
13.3900	8334.7550
13.4000	8492.8200
13.4100	8037.7100
13.4200	7506.7950
13.4300	8343.3300
13.4400	8510.6800
13.4500	8803.0575
13.4600	8498.6075
13.4700	8833.0300
13.4800	8389.2550
13.4900	8049.0650
13.5000	8842.8275
13.5100	8867.4675
13.5200	8581.2375
13.5300	8772.7100
13.5400	8640.7575
13.5500	8300.8150
13.5600	7919.3225
13.5700	8058.1900
13.5800	8335.4575
13.5900	8760.8925
13.6000	8577.9875
13.6100	8329.8425
13.6200	8742.7425
13.6300	8940.1675
13.6400	9013.0600
13.6500	8796.0625
13.6600	9066.8300
13.6700	8485.1325
13.6800	8434.2650
13.6900	8622.0550
13.7000	8413.2675
13.7100	8368.5775
13.7200	8665.0350
13.7300	8667.6375
13.7400	8698.0425
13.7500	8543.1950
13.7600	8094.4950
13.7700	7941.3475
13.7800	8293.4525
13.7900	8426.2150
13.8000	8621.0350
13.8100	8445.7250
13.8200	8527.0925
13.8300	8798.8500
13.8400	8566.8925
13.8500	8284.7450
13.8600	8313.4525
13.8700	8831.0600
13.8800	8851.0875
13.8900	8460.6975
13.9000	8744.6200
13.9100	8719.9975
13.9200	8623.3725
13.9300	8585.5850
13.9400	8723.1325
13.9500	9012.7925
13.9600	8909.1925
13.9700	8543.2700
13.9800	8563.1725
13.9900	8923.0375
14.0000	8593.8075
14.0100	8752.4125
14.0200	8704.7825
14.0300	8931.9475
14.0400	8347.2400
14.0500	9134.1700
14.0600	8829.4450
14.0700	8738.2725
14.0800	8748.7575
14.0900	9104.5750
14.1000	8902.2050
14.1100	9021.9400
14.1200	9094.9050
14.1300	9069.2300
14.1400	9235.8150
14.1500	9004.0900
14.1600	9090.8650
14.1700	8716.1575
14.1800	8806.1000
14.1900	8878.0175
14.2000	8822.0125
14.2100	8847.3100
14.2200	8742.8000
14.2300	8794.5600
14.2400	8585.8175
14.2500	9117.1350
14.2600	9365.3450
14.2700	9108.3825
14.2800	8548.9825
14.2900	8789.9275
14.3000	9136.9475
14.3100	8816.0650
14.3200	8768.0975
14.3300	8858.0325
14.3400	9003.6450
14.3500	8986.2425
14.3600	8390.3750
14.3700	8606.8650
14.3800	8663.7100
14.3900	8651.4875
14.4000	8877.5875
14.4100	8551.2150
14.4200	8471.1975
14.4300	8587.8550
14.4400	8963.3775
14.4500	9136.1950
14.4600	8666.0025
14.4700	8556.1975
14.4800	8791.7450
14.4900	9496.2175
14.5000	8932.7525
14.5100	8911.9225
14.5200	8584.9675
14.5300	8926.7325
14.5400	8680.5000
14.5500	8996.2275
14.5600	8792.6050
14.5700	8886.9675
14.5800	8599.4100
14.5900	8731.9050
14.6000	8704.9600
14.6100	8594.9600
14.6200	8988.2700
14.6300	8883.4375
14.6400	8686.8875
14.6500	9070.9575
14.6600	9266.3225
14.6700	9163.6725
14.6800	8656.6600
14.6900	9167.7850
14.7000	8964.5275
14.7100	9037.8125
14.7200	9064.9175
14.7300	8679.0150
14.7400	8961.1700
14.7500	8702.1275
14.7600	8741.0950
14.7700	9389.7400
14.7800	9630.2325
14.7900	9575.6925
14.8000	9106.2050
14.8100	9079.6900
14.8200	9261.3825
14.8300	9194.3575
14.8400	8797.9750
14.8500	8824.0675
14.8600	9159.0500
14.8700	8800.4725
14.8800	8927.4700
14.8900	9171.7175
14.9000	9436.3700
14.9100	9171.3650
14.9200	8971.0050
14.9300	9259.7275
14.9400	8975.7000
14.9500	8903.8675
14.9600	8885.2750
14.9700	9162.9500
14.9800	8832.2850
14.9900	8959.7400
15.0000	9042.1025
15.0100	9020.6325
15.0200	9222.1350
15.0300	9073.9825
15.0400	9313.8800
15.0500	9452.5625
15.0600	9495.9550
15.0700	9514.6350
15.0800	9502.0400
15.0900	9792.3900
15.1000	9541.1050
15.1100	9514.6025
15.1200	8962.0500
15.1300	8766.6375
15.1400	9085.3150
15.1500	9439.3200
15.1600	9075.5800
15.1700	9307.7575
15.1800	9175.4425
15.1900	9222.6925
15.2000	9349.5750
15.2100	9337.6225
15.2200	9434.9300
15.2300	9537.0350
15.2400	9463.0150
15.2500	9305.1075
15.2600	9399.1825
15.2700	9474.5600
15.2800	9092.7825
15.2900	9640.5150
15.3000	9791.1275
15.3100	9467.8725
15.3200	9459.9625
15.3300	9697.4500
15.3400	9632.4225
15.3500	9631.0750
15.3600	8711.7675
15.3700	9012.7975
15.3800	9529.2100
15.3900	9686.2500
15.4000	9843.6675
15.4100	9550.7800
15.4200	9083.8400
15.4300	9160.0875
15.4400	9183.3325
15.4500	9097.3800
15.4600	9011.7450
15.4700	9357.7325
15.4800	9716.9875
15.4900	10009.6450
15.5000	9664.3150
15.5100	9328.7500
15.5200	9597.2325
15.5300	9207.9425
15.5400	9161.8375
15.5500	9465.7775
15.5600	9559.3725
15.5700	9808.5250
15.5800	9850.0000
15.5900	9580.0025
15.6000	9803.1750
15.6100	9282.2425
15.6200	9211.7050
15.6300	9117.4250
15.6400	9085.8300
15.6500	9522.3225
15.6600	9628.3050
15.6700	9576.7550
15.6800	9849.3875
15.6900	9688.0825
15.7000	9494.6850
15.7100	9932.3375
15.7200	9565.3700
15.7300	9441.0500
15.7400	9362.9025
15.7500	9575.2500
15.7600	9250.8525
15.7700	9787.9800
15.7800	10504.2900
15.7900	10476.2175
15.8000	9776.2425
15.8100	9523.7450
15.8200	9401.8600
15.8300	9453.3925
15.8400	9410.6525
15.8500	9511.9600
15.8600	9589.2800
15.8700	9530.1075
15.8800	9418.8750
15.8900	9511.6950
15.9000	9351.9375
15.9100	9400.3375
15.9200	9569.9700
15.9300	9711.4275
15.9400	9719.4125
15.9500	9939.2550
15.9600	9607.9425
15.9700	9713.9700
15.9800	9750.0000
15.9900	9500.1900
16.0000	9339.0400
16.0100	9801.8225
16.0200	10163.2125
16.0300	10188.9775
16.0400	9477.6700
16.0500	9416.3025
16.0600	9778.8275
16.0700	9794.7550
16.0800	9921.3625
16.0900	9936.2050
16.1000	9767.8975
16.1100	9760.8900
16.1200	9780.4350
16.1300	9824.6175
16.1400	9819.5800
16.1500	9528.0350
16.1600	9507.8750
16.1700	9955.9475
16.1800	10159.7525
16.1900	10087.3575
16.2000	9491.1700
16.2100	9681.6250
16.2200	9736.3150
16.2300	9651.2700
16.2400	9674.3400
16.2500	9737.9750
16.2600	9750.0000
16.2700	9872.7900
16.2800	9709.1100
16.2900	9598.5350
16.3000	9951.0200
16.3100	9665.8725
16.3200	9202.5000
16.3300	9334.1500
16.3400	10008.2100
16.3500	9946.3625
16.3600	9777.8925
16.3700	9885.5900
16.3800	10824.5500
16.3900	10938.5400
16.4000	10388.8575
16.4100	10144.9400
16.4200	10278.8675
16.4300	10114.0450
16.4400	10228.6625
16.4500	9929.3850
16.4600	9755.6200
16.4700	9746.8075
16.4800	10369.4275
16.4900	10422.4650
16.5000	9996.5350
16.5100	10074.7250
16.5200	9848.0300
16.5300	9837.0275
16.5400	9809.7550
16.5500	9773.1875
16.5600	9713.0750
16.5700	10034.7350
16.5800	10210.3325
16.5900	10112.9825
16.6000	9789.3300
16.6100	9489.6250
16.6200	9793.6975
16.6300	9576.5525
16.6400	10019.8625
16.6500	10150.0000
16.6600	9990.2475
16.6700	9870.1750
16.6800	9663.8600
16.6900	10227.8750
16.7000	10489.5625
16.7100	9999.1350
16.7200	9906.4500
16.7300	9969.6775
16.7400	9956.8450
16.7500	9897.0575
16.7600	10280.1525
16.7700	9973.5500
16.7800	9760.9850
16.7900	10023.7700
16.8000	9743.7850
16.8100	10216.9350
16.8200	9892.3300
16.8300	9424.3125
16.8400	9622.8275
16.8500	9936.7050
16.8600	9763.4500
16.8700	9910.1300
16.8800	9809.1725
16.8900	9701.0875
16.9000	9644.0100
16.9100	9842.9150
16.9200	9873.8200
16.9300	9984.4025
16.9400	10474.2225
16.9500	10730.6450
16.9600	10192.2100
16.9700	9915.9075
16.9800	9818.1400
16.9900	9878.1800
17.0000	9639.5725
17.0100	9826.9225
17.0200	9926.0075
17.0300	10011.3075
17.0400	10565.8000
17.0500	10586.8825
17.0600	10329.5150
17.0700	9994.4825
17.0800	10382.9550
17.0900	10387.2275
17.1000	10362.9350
17.1100	10353.7400
17.1200	10350.0000
17.1300	10543.6400
17.1400	10406.4900
17.1500	10375.7850
17.1600	10421.9825
17.1700	10368.9600
17.1800	10182.7400
17.1900	10210.4775
17.2000	10400.3675
17.2100	10501.3600
17.2200	10131.7225
17.2300	10247.4775
17.2400	10637.0200
17.2500	10490.0300
17.2600	10391.0725
17.2700	10025.2675
17.2800	10031.6825
17.2900	9798.4800
17.3000	9793.2400
17.3100	10199.2675
17.3200	10087.2625
17.3300	9927.5150
17.3400	9836.3625
17.3500	9638.6050
17.3600	9964.6325
17.3700	10438.9675
17.3800	10384.9975
17.3900	10320.6500
17.4000	10037.8125
17.4100	10038.6650
17.4200	10345.1375
17.4300	10509.2275
17.4400	10508.0525
17.4500	9906.3150
17.4600	10436.1700
17.4700	10250.4000
17.4800	10305.7475
17.4900	10480.0375
17.5000	10390.7875
17.5100	10375.1575
17.5200	10144.4925
17.5300	10104.3525
17.5400	10405.3875
17.5500	10537.6325
17.5600	10499.8575
17.5700	10696.2900
17.5800	10578.8950
17.5900	10829.4000
17.6000	10570.8150
17.6100	10549.9350
17.6200	10346.1550
17.6300	10067.0775
17.6400	10162.0525
17.6500	10490.7175
17.6600	10446.4050
17.6700	10412.4400
17.6800	10192.9175
17.6900	10029.7150
17.7000	10012.4125
17.7100	10649.2825
17.7200	10519.5950
17.7300	10449.5475
17.7400	10318.1325
17.7500	10439.8350
17.7600	10809.0075
17.7700	11077.2375
17.7800	10824.7650
17.7900	10593.3275
17.8000	10537.6750
17.8100	10139.2100
17.8200	10209.2300
17.8300	10369.4250
17.8400	10903.8900
17.8500	11169.3025
17.8600	11003.6425
17.8700	10663.5350
17.8800	10836.2700
17.8900	10908.8425
17.9000	10924.4750
17.9100	10994.4750
17.9200	10845.5950
17.9300	10636.8050
17.9400	10644.3425
17.9500	10617.8950
17.9600	10405.0525
17.9700	10357.6850
17.9800	10330.1675
17.9900	10389.6125
18.0000	10902.6200
18.0100	10743.4125
18.0200	10568.1425
18.0300	10525.7550
18.0400	10371.3050
18.0500	10909.7925
18.0600	11000.2800
18.0700	11095.0425
18.0800	10582.3325
18.0900	10764.9500
18.1000	10771.9425
18.1100	10873.3350
18.1200	10560.0125
18.1300	10416.6675
18.1400	10524.8900
18.1500	10590.6975
18.1600	10263.8000
18.1700	10481.2825
18.1800	10832.4750
18.1900	10772.9000
18.2000	10561.0350
18.2100	10739.2550
18.2200	10713.7950
18.2300	10845.8400
18.2400	10833.1150
18.2500	10597.2375
18.2600	10349.8100
18.2700	10342.8800
18.2800	10378.5675
18.2900	10585.4900
18.3000	10939.9675
18.3100	10943.1350
18.3200	10615.2425
18.3300	10630.4150
18.3400	10446.3925
18.3500	10444.7050
18.3600	10767.2350
18.3700	10942.4350
18.3800	10919.4200
18.3900	10498.7150
18.4000	10486.6500
18.4100	10726.7700
18.4200	10658.6925
18.4300	10482.3325
18.4400	10586.1850
18.4500	10814.4850
18.4600	10542.8750
18.4700	10693.2750
18.4800	10582.2250
18.4900	10342.7750
18.5000	10447.1925
18.5100	10668.7050
18.5200	10406.1175
18.5300	10395.1175
18.5400	10741.7100
18.5500	11018.2400
18.5600	10943.5275
18.5700	10475.8800
18.5800	10928.1575
18.5900	11385.9775
18.6000	11269.2175
18.6100	10904.7975
18.6200	10620.9800
18.6300	10689.0525
18.6400	11120.5200
18.6500	10936.2400
18.6600	10644.6050
18.6700	10872.1300
18.6800	10942.2850
18.6900	10778.2600
18.7000	10693.6175
18.7100	10522.1100
18.7200	10657.1250
18.7300	10704.0075
18.7400	10729.2900
18.7500	10738.5200
18.7600	10744.8050
18.7700	11162.6275
18.7800	11006.4125
18.7900	10998.7700
18.8000	11055.2325
18.8100	10832.9075
18.8200	10721.9175
18.8300	10899.1925
18.8400	10846.5475
18.8500	10908.6225
18.8600	10625.2425
18.8700	10466.6675
18.8800	10864.3625
18.8900	11140.8300
18.9000	11183.3325
18.9100	10979.2900
18.9200	10973.9475
18.9300	10880.8550
18.9400	11031.5300
18.9500	11155.9325
18.9600	10997.3100
18.9700	10668.4750
18.9800	10561.2725
18.9900	10825.7250
19.0000	11028.7800
19.0100	10841.7600
19.0200	10665.9150
19.0300	10790.5150
19.0400	10810.5750
19.0500	10828.1700
19.0600	11152.4000
19.0700	10807.5975
19.0800	10354.2100
19.0900	10406.4200
19.1000	10594.9700
19.1100	10482.6800
19.1200	10790.0975
19.1300	10738.3300
19.1400	10672.3050
19.1500	10677.7625
19.1600	11177.6950
19.1700	11277.9300
19.1800	11188.9100
19.1900	10906.2800
19.2000	11010.2725
19.2100	11122.2700
19.2200	10519.7050
19.2300	10802.0900
19.2400	11077.9275
19.2500	10614.5375
19.2600	10361.2975
19.2700	10603.2150
19.2800	10744.3325
19.2900	10903.8750
19.3000	10972.3525
19.3100	11021.5325
19.3200	10896.5075
19.3300	10498.9800
19.3400	10366.1700
19.3500	10755.1725
19.3600	10644.0325
19.3700	10668.9425
19.3800	10919.3950
19.3900	11218.0000
19.4000	11071.9525
19.4100	10878.9250
19.4200	10763.0200
19.4300	10803.5750
19.4400	10936.8350
19.4500	10939.9525
19.4600	10645.7650
19.4700	10413.3850
19.4800	10528.9350
19.4900	10681.5175
19.5000	10749.0650
19.5100	10777.4575
19.5200	10891.1450
19.5300	11046.9500
19.5400	11315.2600
19.5500	11379.5650
19.5600	11425.2125
19.5700	11241.2225
19.5800	10912.8675
19.5900	10692.8275
19.6000	10761.8300
19.6100	11271.9850
19.6200	11292.1825
19.6300	10846.2525
19.6400	10976.1350
19.6500	10947.4200
19.6600	11216.8400
19.6700	11231.1000
19.6800	11265.5525
19.6900	11647.5125
19.7000	11572.4925
19.7100	11496.9750
19.7200	11448.5500
19.7300	11209.4025
19.7400	11036.5225
19.7500	11327.6800
19.7600	11210.3925
19.7700	10885.6050
19.7800	11221.7100
19.7900	11371.8650
19.8000	11442.9600
19.8100	11506.1525
19.8200	11373.9275
19.8300	10953.6050
19.8400	10655.6125
19.8500	10820.0450
19.8600	10939.5300
19.8700	10828.7350
19.8800	11038.3850
19.8900	11325.2975
19.9000	11201.7850
19.9100	10728.9475
19.9200	10579.1500
19.9300	10710.3075
19.9400	10704.2950
19.9500	10604.3500
19.9600	10577.0425
19.9700	11018.7775
19.9800	11718.3900
19.9900	11310.6300
20.0000	10786.2600
20.0100	10665.0125
20.0200	11170.0550
20.0300	11242.1925
20.0400	10980.3025
20.0500	11174.0125
20.0600	11333.3325
20.0700	11014.7975
20.0800	10950.1250
20.0900	11125.6450
20.1000	11080.8575
20.1100	10934.7600
20.1200	10914.0200
20.1300	11086.6300
20.1400	11469.2300
20.1500	11527.5850
20.1600	11602.8800
20.1700	11516.7100
20.1800	10677.6800
20.1900	10206.5025
20.2000	10423.4100
20.2100	10779.7275
20.2200	10936.9400
20.2300	10595.5500
20.2400	10741.0300
20.2500	11165.2875
20.2600	11222.7375
20.2700	10920.9925
20.2800	10981.8575
20.2900	11133.3325
20.3000	11183.6450
20.3100	11558.4650
20.3200	11592.5050
20.3300	11577.0450
20.3400	11449.5000
20.3500	11647.1875
20.3600	11716.5700
20.3700	11426.7200
20.3800	11519.7325
20.3900	11526.9675
20.4000	11951.7350
20.4100	11841.8425
20.4200	11423.8775
20.4300	11290.3525
20.4400	11369.1850
20.4500	11430.1550
20.4600	11535.6275
20.4700	11517.6250
20.4800	11370.8425
20.4900	11237.5825
20.5000	11361.1025
20.5100	11443.8650
20.5200	11544.8150
20.5300	11446.2175
20.5400	11444.5725
20.5500	11484.1850
20.5600	11283.0575
20.5700	11392.3150
20.5800	11373.5725
20.5900	10926.8575
20.6000	10866.3075
20.6100	11071.2950
20.6200	11094.2775
20.6300	11291.0275
20.6400	11791.0925
20.6500	11984.6525
20.6600	11444.2075
20.6700	10927.8550
20.6800	11272.9475
20.6900	11367.2300
20.7000	11442.2350
20.7100	11732.8275
20.7200	11632.9250
20.7300	11625.5975
20.7400	11764.9275
20.7500	11433.5825
20.7600	11012.5350
20.7700	11053.9825
20.7800	11147.4375
20.7900	11142.9375
20.8000	11063.6375
20.8100	11210.9000
20.8200	11261.3200
20.8300	11661.7150
20.8400	11318.9125
20.8500	10723.6100
20.8600	11057.7875
20.8700	11407.1800
20.8800	11583.2900
20.8900	11864.0500
20.9000	11819.4625
20.9100	11455.5100
20.9200	11482.4800
20.9300	11604.9125
20.9400	11233.1500
20.9500	11212.4975
20.9600	11475.5650
20.9700	11391.7900
20.9800	11292.7600
20.9900	11639.0275
21.0000	11768.2875
21.0100	11657.2675
21.0200	11603.0550
21.0300	11163.3350
21.0400	10906.2225
21.0500	10809.5850
21.0600	11326.5575
21.0700	11545.7425
21.0800	11174.6750
21.0900	11413.6125
21.1000	11765.1975
21.1100	11760.8400
21.1200	11716.6675
21.1300	11735.2375
21.1400	11462.4350
21.1500	11390.8700
21.1600	11359.2900
21.1700	11168.5975
21.1800	11319.9150
21.1900	11261.8350
21.2000	11193.9700
21.2100	11596.4825
21.2200	11739.5900
21.2300	11760.2975
21.2400	11767.3625
21.2500	11544.0675
21.2600	11380.0150
21.2700	11533.0725
21.2800	11500.4500
21.2900	11423.0775
21.3000	11565.4600
21.3100	11551.2900
21.3200	11282.9925
21.3300	11507.8350
21.3400	12005.9950
21.3500	11850.4250
21.3600	11672.5500
21.3700	11778.6300
21.3800	11726.1700
21.3900	11668.0800
21.4000	11692.3650
21.4100	11663.9150
21.4200	12065.9025
21.4300	12172.2650
21.4400	11788.1275
21.4500	11766.7850
21.4600	11956.4075
21.4700	11638.8950
21.4800	11344.7750
21.4900	11374.3875
21.5000	11330.9225
21.5100	11567.7975
21.5200	11612.7400
21.5300	11886.4750
21.5400	12088.7025
21.5500	11888.8900
21.5600	11725.6925
21.5700	11536.8400
21.5800	11360.3450
21.5900	11293.2200
21.6000	11307.8250
21.6100	11370.6550
21.6200	11486.2675
21.6300	11489.2700
21.6400	11854.9500
21.6500	12014.4100
21.6600	11789.4125
21.6700	11732.4500
21.6800	11515.0650
21.6900	11508.4475
21.7000	11911.5625
21.7100	12447.8550
21.7200	12305.7000
21.7300	12152.0450
21.7400	12349.2500
21.7500	12002.7825
21.7600	11795.5800
21.7700	11614.2625
21.7800	11366.6675
21.7900	11167.4725
21.8000	11009.2875
21.8100	11387.6400
21.8200	11613.0825
21.8300	11852.9475
21.8400	12201.1200
21.8500	12009.6425
21.8600	11653.9025
21.8700	11456.5750
21.8800	11159.9025
21.8900	11198.8600
21.9000	11184.7675
21.9100	11326.4650
21.9200	11717.0725
21.9300	11673.6425
21.9400	11190.7800
21.9500	11047.0875
21.9600	11614.4500
21.9700	11840.2650
21.9800	11885.3800
21.9900	11983.0600
22.0000	11670.5500
22.0100	11696.0175
22.0200	11966.2350
22.0300	11958.6300
22.0400	11890.6875
22.0500	11900.9525
22.0600	12050.4200
22.0700	12100.0000
22.0800	12091.6150
22.0900	12116.8325
22.1000	12091.4450
22.1100	11816.0950
22.1200	11775.2625
22.1300	11833.2925
22.1400	12332.8400
22.1500	12742.0725
22.1600	12300.7225
22.1700	11850.9200
22.1800	11376.3925
22.1900	11141.5025
22.2000	11580.1300
22.2100	12033.0375
22.2200	11984.1650
22.2300	11900.0000
22.2400	11924.6925
22.2500	11892.4500
22.2600	11775.8500
22.2700	11667.4525
22.2800	11780.5200
22.2900	11925.4500
22.3000	12112.5100
22.3100	12153.7275
22.3200	11885.1250
22.3300	11466.0675
22.3400	11344.4500
22.3500	11680.8400
22.3600	11905.0725
22.3700	12033.3325
22.3800	11847.1075
22.3900	11391.2125
22.4000	11165.1325
22.4100	11539.3850
22.4200	11923.6250
22.4300	11950.5700
22.4400	11836.8650
22.4500	11645.0075
22.4600	11710.3975
22.4700	11907.3650
22.4800	11509.2975
22.4900	11321.6975
22.5000	11712.4450
22.5100	11449.9600
22.5200	11185.3575
22.5300	11571.9125
22.5400	12135.1675
22.5500	12498.4000
22.5600	12462.0200
22.5700	12280.4500
22.5800	12182.4750
22.5900	11923.6775
22.6000	11474.7325
22.6100	11458.4300
22.6200	11734.6575
22.6300	11858.8100
22.6400	11959.8550
22.6500	11989.2875
22.6600	11781.5750
22.6700	11713.5750
22.6800	12008.7225
22.6900	12174.1525
22.7000	12096.7350
22.7100	12157.7800
22.7200	12096.7400
22.7300	12055.4675
22.7400	11921.7400
22.7500	11840.5200
22.7600	11735.9350
22.7700	11743.4175
22.7800	12083.3325
22.7900	11960.0975
22.8000	11716.6625
22.8100	11761.3425
22.8200	12141.8325
22.8300	12297.6950
22.8400	12178.3975
22.8500	11789.3400
22.8600	11238.2750
22.8700	11455.5425
22.8800	11855.7450
22.8900	11981.0825
22.9000	12247.0500
22.9100	12070.9150
22.9200	11915.1650
22.9300	11821.4550
22.9400	11559.1100
22.9500	11980.2200
22.9600	12409.5425
22.9700	12081.6775
22.9800	11854.2600
22.9900	11847.4375
23.0000	11693.3400
23.0100	11613.2925
23.0200	11889.3625
23.0300	12325.2700
23.0400	12268.7175
23.0500	11819.4100
23.0600	11891.9950
23.0700	12255.6275
23.0800	11949.3450
23.0900	11577.8075
23.1000	11973.8550
23.1100	12252.1425
23.1200	11859.9350
23.1300	11629.4950
23.1400	11578.3000
23.1500	11724.0625
23.1600	12138.1350
23.1700	11795.2425
23.1800	11297.2425
23.1900	11524.3625
23.2000	11602.9700
23.2100	11740.7700
23.2200	11860.5550
23.2300	11776.7525
23.2400	11903.3975
23.2500	11966.9175
23.2600	12313.7900
23.2700	12425.4300
23.2800	12162.0675
23.2900	11664.0200
23.3000	11304.4975
23.3100	11504.2350
23.3200	12017.9675
23.3300	12039.2250
23.3400	11817.0450
23.3500	11735.1925
23.3600	11764.6225
23.3700	12119.0650
23.3800	11855.0575
23.3900	11744.8525
23.4000	12080.2350
23.4100	12356.8150
23.4200	12468.7950
23.4300	12495.4200
23.4400	12190.8275
23.4500	11844.9200
23.4600	12017.3475
23.4700	11939.3850
23.4800	11653.6725
23.4900	11686.7825
23.5000	11705.2175
23.5100	11835.9900
23.5200	11753.7125
23.5300	11603.8000
23.5400	11649.2025
23.5500	11749.7425
23.5600	11814.1925
23.5700	12407.0375
23.5800	12508.7550
23.5900	11886.3575
23.6000	11701.5800
23.6100	11826.7400
23.6200	12334.5200
23.6300	12342.9325
23.6400	11814.5525
23.6500	11819.6925
23.6600	12117.5575
23.6700	12189.5050
23.6800	12106.4400
23.6900	12344.7975
23.7000	12412.8750
23.7100	12199.4625
23.7200	11892.5325
23.7300	11819.7525
23.7400	11569.4550
23.7500	11510.9450
23.7600	11936.9500
23.7700	11926.1575
23.7800	11920.6000
23.7900	11905.7525
23.8000	11786.8325
23.8100	11615.2925
23.8200	11524.4500
23.8300	11779.7900
23.8400	11974.0125
23.8500	12550.1700
23.8600	12566.7700
23.8700	12136.8200
23.8800	11976.8025
23.8900	11956.4725
23.9000	12063.0400
23.9100	11789.3600
23.9200	11213.8250
23.9300	11423.5275
23.9400	12215.7025
23.9500	12394.9075
23.9600	11764.6425
23.9700	11856.2450
23.9800	12114.8950
23.9900	11885.2825
24.0000	11544.0525
24.0100	11276.0675
24.0200	11271.1150
24.0300	11290.9675
24.0400	11420.3575
24.0500	11341.6975
24.0600	11288.8100
24.0700	11621.2575
24.0800	11972.6150
24.0900	11946.5850
24.1000	12164.2925
24.1100	12350.1175
24.1200	12406.4175
24.1300	12212.9350
24.1400	11940.2500
24.1500	11759.8950
24.1600	11755.9250
24.1700	11486.3925
24.1800	11592.9125
24.1900	12079.1775
24.2000	12285.0100
24.2100	11980.4750
24.2200	11509.8625
24.2300	11574.2150
24.2400	11896.2550
24.2500	12000.0000
24.2600	12100.3600
24.2700	12166.4625
24.2800	11968.7350
24.2900	12010.3125
24.3000	12166.6675
24.3100	12023.5250
24.3200	11696.3425
24.3300	11767.1350
24.3400	12244.8275
24.3500	12272.5425
24.3600	12246.9800
24.3700	12537.2075
24.3800	12365.9050
24.3900	12376.2600
24.4000	12207.0525
24.4100	12237.4650
24.4200	12508.4000
24.4300	12275.8950
24.4400	11734.1125
24.4500	11954.4950
24.4600	11945.4850
24.4700	11972.7325
24.4800	11922.7650
24.4900	12028.3100
24.5000	12538.8525
24.5100	12614.5700
24.5200	12202.3350
24.5300	12036.0450
24.5400	11890.0750
24.5500	11594.5100
24.5600	11924.6350
24.5700	12338.2875
24.5800	12293.8700
24.5900	12001.1800
24.6000	12068.9675
24.6100	11955.4625
24.6200	11662.9300
24.6300	11775.7600
24.6400	11783.0400
24.6500	11717.7950
24.6600	11909.8125
24.6700	11737.5250
24.6800	11675.8075
24.6900	12000.0000
24.7000	12040.8850
24.7100	12005.8825
24.7200	11864.0300
24.7300	11890.3550
24.7400	11768.8775
24.7500	11930.3725
24.7600	12026.8725
24.7700	11867.9000
24.7800	11794.0475
24.7900	12181.7075
24.8000	12422.9700
24.8100	12558.3850
24.8200	12498.7100
24.8300	12129.9775
24.8400	12152.1675
24.8500	12116.3325
24.8600	12334.4225
24.8700	11853.5550
24.8800	11672.3300
24.8900	11694.6400
24.9000	11632.0100
24.9100	11461.0325
24.9200	11646.8425
24.9300	11988.4200
24.9400	11894.3950
24.9500	11933.6850
24.9600	11971.9025
24.9700	11827.7000
24.9800	11900.1975
24.9900	12199.9950
25.0000	12416.5125
25.0100	12433.8775
25.0200	12033.8750
25.0300	11816.7875
25.0400	11904.4600
25.0500	12056.5700
25.0600	11866.6675
25.0700	12036.4300
25.0800	12208.4100
25.0900	11871.8250
25.1000	12025.6000
25.1100	12211.9425
25.1200	12203.8825
25.1300	12203.7400
25.1400	11872.9650
25.1500	11789.6800
25.1600	11679.4600
25.1700	11609.6875
25.1800	11844.9275
25.1900	12042.8425
25.2000	11805.9700
25.2100	11874.0800
25.2200	11890.8350
25.2300	11771.9475
25.2400	12539.6225
25.2500	12629.8700
25.2600	11805.2875
25.2700	11911.6850
25.2800	12106.1275
25.2900	12020.2250
25.3000	11794.0975
25.3100	11505.6925
25.3200	11514.4075
25.3300	12098.1650
25.3400	12391.6775
25.3500	12415.7350
25.3600	12277.0475
25.3700	12263.7400
25.3800	12136.8025
25.3900	12182.9825
25.4000	12506.3650
25.4100	12370.2425
25.4200	12126.9275
25.4300	12083.4300
25.4400	11820.8950
25.4500	11709.4950
25.4600	12130.0650
25.4700	12278.8625
25.4800	12005.0975
25.4900	11947.3950
25.5000	12410.1025
25.5100	12393.0000
25.5200	12174.2050
25.5300	11908.4425
25.5400	12076.9300
25.5500	12283.3125
25.5600	12131.7225
25.5700	12030.0700
25.5800	11938.5825
25.5900	11729.1200
25.6000	11532.8600
25.6100	11625.2875
25.6200	11477.8750
25.6300	11453.7375
25.6400	11993.3475
25.6500	12260.7950
25.6600	12224.7625
25.6700	11907.7500
25.6800	11864.3250
25.6900	11791.7525
25.7000	12129.3025
25.7100	11979.6350
25.7200	12109.1650
25.7300	12040.3525
25.7400	11934.8275
25.7500	11853.4350
25.7600	12202.7375
25.7700	12218.5100
25.7800	12052.6925
25.7900	12297.5900
25.8000	12081.0850
25.8100	11876.1550
25.8200	11795.8350
25.8300	11760.1275
25.8400	12300.3275
25.8500	12221.3725
25.8600	12106.5650
25.8700	11858.2975
25.8800	11919.0925
25.8900	11667.3100
25.9000	11953.1650
25.9100	12082.2325
25.9200	11996.3575
25.9300	12047.2800
25.9400	11857.4350
25.9500	11934.6625
25.9600	12158.6350
25.9700	12077.5175
25.9800	12131.6950
25.9900	12028.5375
26.0000	11928.8975
26.0100	12136.3825
26.0200	12348.5200
26.0300	12286.4200
26.0400	12222.9000
26.0500	12019.3050
26.0600	11711.6350
26.0700	12044.2175
26.0800	12513.6950
26.0900	12135.0575
26.1000	11893.4100
26.1100	11948.8775
26.1200	11984.3075
26.1300	12132.5475
26.1400	11913.2525
26.1500	11892.7025
26.1600	11900.4425
26.1700	12349.1150
26.1800	12326.2675
26.1900	12295.1725
26.2000	12034.8625
26.2100	12298.5550
26.2200	12558.4400
26.2300	11970.9950
26.2400	12026.5150
26.2500	12150.0000
26.2600	12025.3500
26.2700	11598.0525
26.2800	11622.4800
26.2900	12253.8600
26.3000	12144.2700
26.3100	11856.8575
26.3200	11633.3325
26.3300	11658.7050
26.3400	11868.3375
26.3500	12275.0850
26.3600	12106.8475
26.3700	11709.2725
26.3800	12133.0350
26.3900	11987.5925
26.4000	12433.3625
26.4100	12354.2875
26.4200	12150.7650
26.4300	11742.1875
26.4400	11533.7100
26.4500	11626.4825
26.4600	12110.0775
26.4700	11918.2925
26.4800	12386.3700
26.4900	12472.6725
26.5000	12273.9325
26.5100	12290.6525
26.5200	11849.0000
26.5300	11480.9425
26.5400	11473.4500
26.5500	11910.5250
26.5600	11665.3300
26.5700	11525.8150
26.5800	11870.1550
26.5900	12168.2375
26.6000	12110.2325
26.6100	12139.3850
26.6200	11759.6900
26.6300	11875.9325
26.6400	12484.3175
26.6500	12437.2450
26.6600	12403.1900
26.6700	12211.0925
26.6800	12048.4050
26.6900	11863.6575
26.7000	11621.7500
26.7100	11764.3325
26.7200	12289.8450
26.7300	12140.6050
26.7400	12393.0075
26.7500	12044.7675
26.7600	12170.7625
26.7700	12436.3350
26.7800	12390.0550
26.7900	12651.2200
26.8000	12691.4975
26.8100	11932.0425
26.8200	11564.6250
26.8300	11429.1000
26.8400	11231.7150
26.8500	11470.5225
26.8600	11735.1750
26.8700	11866.4525
26.8800	12111.0450
26.8900	12113.2800
26.9000	11986.9950
26.9100	11989.0450
26.9200	11928.1475
26.9300	11839.1025
26.9400	11886.9325
26.9500	12178.3275
26.9600	12125.2150
26.9700	12310.0650
26.9800	12556.8600
26.9900	12230.9550
27.0000	12254.8350
27.0100	12121.5800
27.0200	12101.6850
27.0300	12395.4725
27.0400	12193.3775
27.0500	11719.2825
27.0600	11817.2800
27.0700	12425.2450
27.0800	12475.3700
27.0900	11945.1200
27.1000	11604.5325
27.1100	12149.5350
27.1200	12325.5075
27.1300	11865.7225
27.1400	12255.2150
27.1500	12591.3550
27.1600	12734.9925
27.1700	12304.6950
27.1800	11941.0950
27.1900	12219.8400
27.2000	12207.0250
27.2100	12329.7800
27.2200	12216.7650
27.2300	12226.6675
27.2400	11773.2125
27.2500	11827.3050
27.2600	11532.1350
27.2700	12083.1350
27.2800	12133.5825
27.2900	12079.7600
27.3000	12081.1175
27.3100	11899.2025
27.3200	11991.1675
27.3300	11878.1050
27.3400	12252.6100
27.3500	12711.4350
27.3600	12575.6300
27.3700	12558.7750
27.3800	12116.1125
27.3900	12485.7100
27.4000	12484.4050
27.4100	12082.8700
27.4200	11923.2575
27.4300	12216.8100
27.4400	12327.1175
27.4500	11913.3775
27.4600	12094.9375
27.4700	11953.5875
27.4800	11817.8500
27.4900	12033.6650
27.5000	11660.5375
27.5100	11740.2300
27.5200	12146.6500
27.5300	11775.6825
27.5400	11543.8850
27.5500	11651.5950
27.5600	11586.3375
27.5700	11731.7525
27.5800	12434.8050
27.5900	12834.5625
27.6000	12479.9725
27.6100	12171.2875
27.6200	11886.2775
27.6300	11864.7850
27.6400	11746.7925
27.6500	12033.7025
27.6600	12344.1900
27.6700	12307.9825
27.6800	12197.4325
27.6900	11881.0400
27.7000	12010.1600
27.7100	12314.2750
27.7200	12286.6100
27.7300	11830.8400
27.7400	11948.0225
27.7500	12231.1875
27.7600	12486.3000
27.7700	12544.2050
27.7800	12216.3225
27.7900	11494.5000
27.8000	11277.4975
27.8100	11632.9250
27.8200	11844.9025
27.8300	11671.8800
27.8400	11886.8875
27.8500	12457.3950
27.8600	12577.3950
27.8700	12051.9825
27.8800	11687.1300
27.8900	11544.0350
27.9000	11765.2475
27.9100	12628.0225
27.9200	12531.2225
27.9300	12219.3725
27.9400	12471.1200
27.9500	12261.7425
27.9600	11961.4550
27.9700	11891.8075
27.9800	11739.0600
27.9900	12151.3625
28.0000	12239.7375
28.0100	12214.0000
28.0200	12312.0575
28.0300	11868.4900
28.0400	11582.3200
28.0500	11541.1925
28.0600	11901.7450
28.0700	12177.3650
28.0800	12514.7525
28.0900	11928.3825
28.1000	11927.1225
28.1100	12198.7550
28.1200	12773.7275
28.1300	12170.0025
28.1400	11897.0325
28.1500	12500.4875
28.1600	12649.4775
28.1700	12256.5600
28.1800	11750.1050
28.1900	12033.3675
28.2000	11947.5300
28.2100	12073.3850
28.2200	12382.3550
28.2300	12773.9900
28.2400	12667.8200
28.2500	12410.6725
28.2600	12595.7025
28.2700	12059.1850
28.2800	12112.0950
28.2900	12076.5050
28.3000	12001.6075
28.3100	11779.6950
28.3200	11692.6775
28.3300	11919.7050
28.3400	11654.5125
28.3500	11997.5175
28.3600	12620.0950
28.3700	12506.9775
28.3800	12344.2650
28.3900	12370.9625
28.4000	12116.4950
28.4100	12458.6250
28.4200	12488.7625
28.4300	12274.3625
28.4400	12070.2300
28.4500	11915.3475
28.4600	12239.4675
28.4700	12198.1150
28.4800	12381.1950
28.4900	12122.9500
28.5000	12029.3350
28.5100	11864.8225
28.5200	11723.1000
28.5300	11656.1100
28.5400	11783.0950
28.5500	12353.0825
28.5600	12099.2175
28.5700	11901.9150
28.5800	12315.1225
28.5900	12496.6250
28.6000	12060.6625
28.6100	11784.2775
28.6200	11867.9950
28.6300	11513.5575
28.6400	11668.6925
28.6500	12057.0825
28.6600	12040.5425
28.6700	12428.3200
28.6800	12005.6600
28.6900	12121.3275
28.7000	12659.0625
28.7100	12488.9525
28.7200	12616.7950
28.7300	12187.2725
28.7400	11959.1350
28.7500	12033.3325
28.7600	12040.5625
28.7700	12094.6075
28.7800	12032.1275
28.7900	11886.8875
28.8000	11937.8750
28.8100	12099.0925
28.8200	11932.5275
28.8300	11798.9700
28.8400	11897.0575
28.8500	11595.3550
28.8600	11723.9050
28.8700	11897.6875
28.8800	11583.3325
28.8900	11621.9150
28.9000	12000.0175
28.9100	12326.5200
28.9200	12550.1900
28.9300	12373.7975
28.9400	12089.3875
28.9500	11725.3925
28.9600	12105.4125
28.9700	11974.4375
28.9800	11696.8150
28.9900	11413.1100
29.0000	12046.4550
29.0100	12300.6200
29.0200	11980.2375
29.0300	11977.6825
29.0400	12240.8325
29.0500	12143.9275
29.0600	12093.8900
29.0700	12176.0325
29.0800	12004.7575
29.0900	12672.7350
29.1000	12066.1475
29.1100	12236.2500
29.1200	12250.7375
29.1300	12104.9050
29.1400	12310.4825
29.1500	12086.5200
29.1600	12271.8350
29.1700	11972.2600
29.1800	12069.4275
29.1900	12415.6700
29.2000	11858.2100
29.2100	11948.6425
29.2200	11927.9400
29.2300	11882.7275
29.2400	12091.9075
29.2500	12388.6075
29.2600	12405.5125
29.2700	11875.5425
29.2800	11773.0250
29.2900	11639.7725
29.3000	11548.3825
29.3100	11987.4550
29.3200	12601.3025
29.3300	12030.9675
29.3400	12409.2950
29.3500	12291.0725
29.3600	11992.0500
29.3700	12310.6725
29.3800	12195.2900
29.3900	11704.7150
29.4000	11800.5650
29.4100	12241.8875
29.4200	12149.4200
29.4300	12372.3625
29.4400	12410.4825
29.4500	11851.0000
29.4600	11644.4250
29.4700	11787.9100
29.4800	11660.2350
29.4900	12258.5125
29.5000	11879.6850
29.5100	11590.7475
29.5200	11690.5550
29.5300	11559.3550
29.5400	11704.1175
29.5500	11783.9975
29.5600	12059.0850
29.5700	12206.9975
29.5800	12291.9275
29.5900	11873.5525
29.6000	11472.3000
29.6100	11872.6775
29.6200	12512.8675
29.6300	12454.6975
29.6400	12515.6675
29.6500	12212.0675
29.6600	12134.2425
29.6700	12135.6025
29.6800	11869.9850
29.6900	11627.1725
29.7000	11509.7075
29.7100	11400.5350
29.7200	11717.5175
29.7300	11740.8950
29.7400	11904.0875
29.7500	12296.7200
29.7600	12225.2300
29.7700	12065.0650
29.7800	12024.6400
29.7900	11875.7525
29.8000	12393.0675
29.8100	12232.5100
29.8200	11890.6825
29.8300	12410.3675
29.8400	12623.1050
29.8500	12395.6775
29.8600	12290.7625
29.8700	12067.2175
29.8800	11693.7825
29.8900	11562.2550
29.9000	11855.3675
29.9100	11982.0125
29.9200	11940.2350
29.9300	11710.2550
29.9400	11971.0850
29.9500	12077.1225
29.9600	11901.3900
29.9700	11519.8375
29.9800	12024.5775
29.9900	11351.3525
30.0000	11867.7100
30.0100	12373.9650
30.0200	12591.0525
30.0300	12795.5500
30.0400	12161.3525
30.0500	12008.8675
30.0600	12285.3800
30.0700	12361.0375
30.0800	12715.6825
30.0900	12664.5450
30.1000	12032.8625
30.1100	12016.6675
30.1200	12027.0600
30.1300	12399.5575
30.1400	12358.2775
30.1500	11423.4200
30.1600	11686.6300
30.1700	11821.0900
30.1800	12000.3925
30.1900	12022.4000
30.2000	12268.1550
30.2100	12326.4475
30.2200	12021.9525
30.2300	12261.5300
30.2400	12020.9900
30.2500	12241.7225
30.2600	12666.0425
30.2700	12625.4625
30.2800	12184.7750
30.2900	11342.9500
30.3000	11907.0950
30.3100	12332.0175
30.3200	12239.1200
30.3300	11534.3050
30.3400	11612.1250
30.3500	12470.2375
30.3600	12724.5875
30.3700	12054.2700
30.3800	12404.8350
30.3900	12813.3650
30.4000	12510.4200
30.4100	11912.2500
30.4200	11473.2750
30.4300	12182.6150
30.4400	12099.5975
30.4500	12050.3725
30.4600	12098.8600
30.4700	11934.1650
30.4800	12068.4550
30.4900	12383.9225
30.5000	12500.0750
30.5100	12515.7025
30.5200	12265.5800
30.5300	11932.9775
30.5400	11800.5850
30.5500	12083.8725
30.5600	12449.5625
30.5700	11950.0275
30.5800	12049.9675
30.5900	11950.0900
30.6000	12748.7950
30.6100	11752.1025
30.6200	12015.9475
30.6300	12348.9025
30.6400	12482.8150
30.6500	12815.1725
30.6600	11987.5650
30.6700	12066.1950
30.6800	12629.7800
30.6900	12583.6775
30.7000	12335.1975
30.7100	12234.1400
30.7200	12183.7650
30.7300	12084.2575
30.7400	12347.3750
30.7500	12333.5075
30.7600	12399.2650
30.7700	12515.3100
30.7800	12829.4625
30.7900	12454.9125
30.8000	11858.0475
30.8100	12063.6325
30.8200	12000.9725
30.8300	12016.4125
30.8400	12607.1900
30.8500	12141.2550
30.8600	11494.3725
30.8700	11990.9175
30.8800	11705.4525
30.8900	11650.9375
30.9000	11911.5025
30.9100	12749.7025
30.9200	12342.2400
30.9300	11990.7350
30.9400	12048.5500
30.9500	12164.0600
30.9600	12427.2175
30.9700	11912.5475
30.9800	12030.1175
30.9900	12439.7025
31.0000	12076.3675
31.0100	11985.4925
31.0200	12372.7350
31.0300	12788.7125
31.0400	11908.7125
31.0500	11446.0600
31.0600	11837.9700
31.0700	11736.7725
31.0800	12590.1125
31.0900	12568.2000
31.1000	12227.6050
31.1100	12055.3075
31.1200	12243.5125
31.1300	12282.2325
31.1400	11993.4225
31.1500	11725.7925
31.1600	11652.3200
31.1700	11698.2300
31.1800	12085.6000
31.1900	12003.6600
31.2000	12112.3275
31.2100	11860.0750
31.2200	12459.0275
31.2300	12243.0750
31.2400	12601.5000
31.2500	12264.7250
31.2600	12265.9875
31.2700	11803.3175
31.2800	12422.0400
31.2900	12402.1275
31.3000	12304.3125
31.3100	12475.3175
31.3200	12276.2675
31.3300	12346.2575
31.3400	12095.4675
31.3500	12353.6075
31.3600	12477.8875
31.3700	11959.3375
31.3800	11298.5800
31.3900	11441.1150
31.4000	12702.0750
31.4100	12085.5825
31.4200	11717.5850
31.4300	11700.0000
31.4400	12205.9050
31.4500	12154.3350
31.4600	12718.4300
31.4700	13018.2575
31.4800	12544.4625
31.4900	12831.8700
31.5000	13322.5075
31.5100	12169.4725
31.5200	11848.3125
31.5300	11754.7300
31.5400	11875.6850
31.5500	12479.9650
31.5600	12140.0825
31.5700	11661.9150
31.5800	11931.0875
31.5900	11777.7250
31.6000	11907.5300
31.6100	12276.4250
31.6200	12221.8400
31.6300	12232.2875
31.6400	12342.6175
31.6500	12053.5600
31.6600	11955.3725
31.6700	12682.3750
31.6800	13075.9300
31.6900	12570.8675
31.7000	12175.6175
31.7100	12087.8275
31.7200	12487.1950
31.7300	12532.1900
31.7400	12098.9575
31.7500	12206.1975
31.7600	11875.8050
31.7700	11462.9050
31.7800	12408.1925
31.7900	12096.7325
31.8000	12082.1200
31.8100	12037.0000
31.8200	12002.4650
31.8300	11814.9050
31.8400	11676.6825
31.8500	11574.2375
31.8600	12105.4950
31.8700	12042.3025
31.8800	12202.4625
31.8900	12170.5700
31.9000	12166.6675
31.9100	11936.4800
31.9200	12300.0675
31.9300	12134.0925
31.9400	12070.7175
31.9500	12372.7950
31.9600	12308.2200
31.9700	11963.6900
31.9800	11856.9475
31.9900	11575.1925
32.0000	11992.4600
32.0100	12445.0125
32.0200	12513.8075
32.0300	12029.3800
32.0400	11724.6300
32.0500	11487.0875
32.0600	11892.2175
32.0700	12510.4900
32.0800	12521.1300
32.0900	12031.2675
32.1000	12013.6500
32.1100	11804.5800
32.1200	11919.5850
32.1300	12462.8600
32.1400	12395.7100
32.1500	11854.4950
32.1600	12071.7975
32.1700	12220.7200
32.1800	12459.5375
32.1900	12483.3325
32.2000	12347.7875
32.2100	12107.5725
32.2200	12293.9050
32.2300	12722.5050
32.2400	12616.4550
32.2500	12539.9550
32.2600	12113.2875
32.2700	11496.9775
32.2800	12137.4850
32.2900	12216.6675
32.3000	11917.4200
32.3100	12406.6725
32.3200	12078.1575
32.3300	11824.2725
32.3400	12367.0775
32.3500	12194.7225
32.3600	11928.2125
32.3700	12019.1500
32.3800	12107.7525
32.3900	12339.7775
32.4000	11965.3325
32.4100	11931.5200
32.4200	12512.2725
32.4300	12464.6550
32.4400	12301.7500
32.4500	12475.9300
32.4600	12263.1150
32.4700	12544.0400
32.4800	12287.6175
32.4900	12161.3450
32.5000	12725.8800
32.5100	12386.8225
32.5200	12628.2650
32.5300	12475.0900
32.5400	12096.5525
32.5500	12211.8875
32.5600	11792.1125
32.5700	11939.1000
32.5800	11731.6625
32.5900	11832.1025
32.6000	12055.3550
32.6100	12083.3325
32.6200	12024.7400
32.6300	12324.0825
32.6400	11635.2175
32.6500	11796.4800
32.6600	11935.6000
32.6700	11760.2050
32.6800	11879.2325
32.6900	12104.1200
32.7000	12468.4500
32.7100	12574.9075
32.7200	12423.2750
32.7300	12429.0825
32.7400	11968.3375
32.7500	11929.0425
32.7600	12049.4250
32.7700	12139.1750
32.7800	12178.9850
32.7900	12559.8725
32.8000	12414.0525
32.8100	12441.1850
32.8200	12536.7175
32.8300	12160.0350
32.8400	12244.3350
32.8500	12050.3125
32.8600	11944.5975
32.8700	12034.1625
32.8800	12035.6050
32.8900	12134.0250
32.9000	12078.1250
32.9100	12382.6975
32.9200	12433.3325
32.9300	12361.6050
32.9400	12507.6925
32.9500	12604.9625
32.9600	12502.1375
32.9700	12383.1875
32.9800	11923.4700
32.9900	11692.8425
33.0000	12037.8725
33.0100	12456.6850
33.0200	12473.8925
33.0300	11996.4850
33.0400	12158.7150
33.0500	12114.6300
33.0600	11673.4400
33.0700	11671.0450
33.0800	12577.8825
33.0900	12222.5125
33.1000	12133.3325
33.1100	12558.4325
33.1200	12732.4550
33.1300	12212.2825
33.1400	12159.0900
33.1500	11884.0475
33.1600	11720.3625
33.1700	11361.3250
33.1800	11765.3575
33.1900	12103.6575
33.2000	12727.3725
33.2100	12622.2450
33.2200	12245.8250
33.2300	12408.1825
33.2400	12112.9600
33.2500	12078.0675
33.2600	12335.7625
33.2700	12313.2625
33.2800	12243.9825
33.2900	12009.4175
33.3000	12008.6225
33.3100	11765.1125
33.3200	11423.3900
33.3300	12204.0150
33.3400	12464.2900
33.3500	11953.7525
33.3600	11850.0000
33.3700	12142.2550
33.3800	11768.8775
33.3900	11766.7175
33.4000	11963.8750
33.4100	11916.7325
33.4200	12052.5525
33.4300	11847.7375
33.4400	12049.2800
33.4500	11961.6075
33.4600	11933.3325
33.4700	12251.1875
33.4800	12454.7675
33.4900	12372.9300
33.5000	11715.6300
33.5100	11831.3900
33.5200	11869.5625
33.5300	12169.4200
33.5400	12384.6050
33.5500	11880.7225
33.5600	11698.0050
33.5700	12053.8475
33.5800	12105.9075
33.5900	12100.0000
33.6000	12086.3075
33.6100	11645.4450
33.6200	11727.7650
33.6300	11944.3075
33.6400	11792.1650
33.6500	12350.3900
33.6600	12183.3525
33.6700	11994.0350
33.6800	12429.6175
33.6900	12438.0875
33.7000	12539.0375
33.7100	12838.4100
33.7200	12628.4500
33.7300	12648.0725
33.7400	12571.7600
33.7500	12699.0325
33.7600	11975.1650
33.7700	11840.5875
33.7800	11998.7125
33.7900	12465.6450
33.8000	12094.1650
33.8100	12064.2750
33.8200	12245.1025
33.8300	12283.3325
33.8400	12054.4900
33.8500	11973.0975
33.8600	12047.3200
33.8700	11959.2075
33.8800	11960.1775
33.8900	11993.4925
33.9000	12281.4700
33.9100	12524.1175
33.9200	12218.6800
33.9300	11959.4650
33.9400	12063.6800
33.9500	12273.6150
33.9600	12343.3575
33.9700	12256.6500
33.9800	12939.6175
33.9900	12823.7050
34.0000	12031.4300
34.0100	12102.6475
34.0200	12179.9550
34.0300	12077.1100
34.0400	12275.5600
34.0500	12399.6275
34.0600	12575.6550
34.0700	12126.8125
34.0800	12092.6075
34.0900	12513.2675
34.1000	12933.7175
34.1100	12911.0600
34.1200	12395.2600
34.1300	12161.2150
34.1400	11896.2400
34.1500	12162.3900
34.1600	12631.4250
34.1700	12562.4750
34.1800	12148.9325
34.1900	11945.0100
34.2000	12087.1500
34.2100	12264.3775
34.2200	12588.0875
34.2300	12575.0700
34.2400	12471.5450
34.2500	12097.2175
34.2600	11986.9425
34.2700	11944.1925
34.2800	11972.4450
34.2900	12361.1325
34.3000	12323.4700
34.3100	12062.1925
34.3200	12337.9675
34.3300	12459.3125
34.3400	12349.8500
34.3500	11745.9925
34.3600	11738.8575
34.3700	11705.6300
34.3800	11890.3900
34.3900	12337.9450
34.4000	12320.7800
34.4100	12050.9125
34.4200	12073.6525
34.4300	12009.7475
34.4400	11983.3325
34.4500	12356.6775
34.4600	12402.3450
34.4700	12151.9475
34.4800	12314.5450
34.4900	12563.0300
34.5000	12449.9300
34.5100	12028.3250
34.5200	11916.6675
34.5300	12083.0300
34.5400	12197.2725
34.5500	12088.8875
34.5600	11960.6200
34.5700	12086.4400
34.5800	11980.3425
34.5900	11704.0175
34.6000	12002.5075
34.6100	12523.7250
34.6200	12472.0450
34.6300	12569.0850
34.6400	12070.9175
34.6500	12242.4225
34.6600	12666.8175
34.6700	12057.5300
34.6800	11947.2150
34.6900	12109.7725
34.7000	11985.7525
34.7100	12021.7075
34.7200	12289.6925
34.7300	11963.2800
34.7400	12110.4500
34.7500	12451.7350
34.7600	12608.7950
34.7700	12482.5225
34.7800	11981.2450
34.7900	12360.3700
34.8000	12395.4050
34.8100	12199.6475
34.8200	12275.1975
34.8300	12666.9550
34.8400	11833.2750
34.8500	11404.2450
34.8600	11528.9275
34.8700	12057.2750
34.8800	12216.6675
34.8900	12204.2125
34.9000	12287.1050
34.9100	12515.6100
34.9200	12521.2100
34.9300	12127.5525
34.9400	12111.6475
34.9500	12484.6900
34.9600	12860.1125
34.9700	12504.4350
34.9800	12300.5300
34.9900	12295.6900
35.0000	12386.4375
35.0100	12219.2475
35.0200	12273.2925
35.0300	12218.1100
35.0400	12183.3325
35.0500	12244.8375
35.0600	11799.6025
35.0700	11792.9950
35.0800	11788.6400
35.0900	11975.1325
35.1000	11976.4800
35.1100	12194.8725
35.1200	12393.4400
35.1300	12531.1300
35.1400	12322.3650
35.1500	11598.6400
35.1600	11574.0000
35.1700	12259.3325
35.1800	12227.6125
35.1900	11902.1475
35.2000	11597.8200
35.2100	11808.2350
35.2200	11965.2225
35.2300	12456.3925
35.2400	12306.0875
35.2500	12122.7800
35.2600	11966.8875
35.2700	12098.0425
35.2800	11852.5275
35.2900	11938.5700
35.3000	12233.8075
35.3100	12581.8500
35.3200	12767.6450
35.3300	12186.2200
35.3400	12226.5850
35.3500	12585.6675
35.3600	12551.2625
35.3700	12643.9650
35.3800	12735.9625
35.3900	12558.3500
35.4000	12650.8950
35.4100	12872.1350
35.4200	12646.5400
35.4300	12640.7950
35.4400	12540.1650
35.4500	12078.0075
35.4600	12131.0800
35.4700	11978.6175
35.4800	11574.1150
35.4900	11628.2525
35.5000	12531.1850
35.5100	12427.6750
35.5200	12107.7375
35.5300	12547.5200
35.5400	12880.2000
35.5500	12566.7000
35.5600	12263.0400
35.5700	12152.7675
35.5800	12274.9150
35.5900	12132.9175
35.6000	12650.7625
35.6100	12888.2300
35.6200	12236.4875
35.6300	11966.6675
35.6400	12107.5700
35.6500	12002.4100
35.6600	12027.1175
35.6700	12371.2225
35.6800	12301.0275
35.6900	12263.4450
35.7000	12271.6475
35.7100	12441.8075
35.7200	12131.6700
35.7300	12666.0975
35.7400	12803.5975
35.7500	12244.5225
35.7600	12184.5100
35.7700	12377.8150
35.7800	12235.9600
35.7900	12057.1950
35.8000	12526.6850
35.8100	12703.6725
35.8200	12718.0500
35.8300	12143.6125
35.8400	12137.5150
35.8500	12400.0775
35.8600	12259.0375
35.8700	12235.8200
35.8800	12139.9900
35.8900	12347.9900
35.9000	12501.1600
35.9100	12631.5475
35.9200	12201.2300
35.9300	11765.4175
35.9400	12125.0600
35.9500	12688.2975
35.9600	12678.3825
35.9700	12097.0050
35.9800	11855.2450
35.9900	12238.0425
36.0000	12599.1250
36.0100	12409.8725
36.0200	12624.8800
36.0300	12897.0875
36.0400	12358.9600
36.0500	12435.3925
36.0600	12600.0000
36.0700	12418.5900
36.0800	12254.0325
36.0900	12069.5150
36.1000	12147.0300
36.1100	12499.1825
36.1200	12452.6725
36.1300	12062.0550
36.1400	11826.4850
36.1500	12481.6550
36.1600	12434.0350
36.1700	12013.8650
36.1800	12360.6450
36.1900	12381.2675
36.2000	12014.1375
36.2100	11972.9900
36.2200	12128.6450
36.2300	11925.9975
36.2400	11777.6425
36.2500	11956.5550
36.2600	12239.7300
36.2700	12366.7875
36.2800	12461.3275
36.2900	12544.5300
36.3000	12944.8575
36.3100	12966.6250
36.3200	12350.3125
36.3300	12105.5250
36.3400	12537.9325
36.3500	12395.5475
36.3600	12371.6100
36.3700	12483.1750
36.3800	12698.8775
36.3900	12833.1175
36.4000	12419.8250
36.4100	12387.3550
36.4200	12538.3900
36.4300	12412.6350
36.4400	12300.3550
36.4500	12415.1375
36.4600	12472.3600
36.4700	12225.4350
36.4800	12220.5125
36.4900	12370.9050
36.5000	12547.9125
36.5100	12868.0075
36.5200	12410.3975
36.5300	12165.4550
36.5400	12439.8000
36.5500	12120.1475
36.5600	12373.0000
36.5700	12535.4825
36.5800	12657.1400
36.5900	12706.5850
36.6000	12618.2675
36.6100	12453.3125
36.6200	12513.2425
36.6300	12323.7350
36.6400	12248.1775
36.6500	12294.1325
36.6600	11997.9150
36.6700	11962.6875
36.6800	12065.6450
36.6900	12373.8800
36.7000	12587.0925
36.7100	12004.3450
36.7200	11816.9325
36.7300	11706.9675
36.7400	12157.1675
36.7500	12252.5575
36.7600	12015.6750
36.7700	12163.7400
36.7800	12133.8450
36.7900	12178.0225
36.8000	12452.5275
36.8100	12311.0650
36.8200	12390.1250
36.8300	12155.1925
36.8400	12024.3575
36.8500	12098.5050
36.8600	12053.0425
36.8700	12345.1025
36.8800	12226.3550
36.8900	12261.5250
36.9000	12615.8075
36.9100	12391.0350
36.9200	12098.9450
36.9300	12039.4600
36.9400	12254.4675
36.9500	12078.2250
36.9600	11836.9300
36.9700	11884.0200
36.9800	11807.4125
36.9900	12026.8900
37.0000	11602.9275
37.0100	11825.6175
37.0200	12250.3200
37.0300	12707.4475
37.0400	12668.1700
37.0500	12343.5650
37.0600	12250.0000
37.0700	12489.4450
37.0800	12508.5150
37.0900	12204.7050
37.1000	12160.1150
37.1100	12154.4225
37.1200	12282.5025
37.1300	12404.0450
37.1400	12613.2475
37.1500	12567.9375
37.1600	12466.6675
37.1700	12219.0150
37.1800	12211.0025
37.1900	12670.8175
37.2000	12982.3300
37.2100	12673.4575
37.2200	12593.8225
37.2300	12303.5700
37.2400	12364.0525
37.2500	12396.3175
37.2600	12330.7100
37.2700	12288.6375
37.2800	12055.8550
37.2900	12025.2150
37.3000	12450.5275
37.3100	12622.1900
37.3200	12389.8850
37.3300	11930.9775
37.3400	11452.4225
37.3500	11923.0425
37.3600	12384.0575
37.3700	12335.5800
37.3800	12273.2075
37.3900	12023.8450
37.4000	12129.4875
37.4100	12340.3975
37.4200	12174.9525
37.4300	12170.9725
37.4400	12451.4400
37.4500	12633.6475
37.4600	12495.7525
37.4700	12453.6450
37.4800	12510.0350
37.4900	12336.1925
37.5000	12046.3725
37.5100	11913.3175
37.5200	12009.9900
37.5300	11813.6025
37.5400	11703.2000
37.5500	12009.2675
37.5600	12233.1475
37.5700	11987.9650
37.5800	11988.9450
37.5900	12017.3125
37.6000	12138.6000
37.6100	12365.8400
37.6200	12393.7000
37.6300	12158.7850
37.6400	12046.3375
37.6500	11898.6900
37.6600	11901.7950
37.6700	11963.6075
37.6800	12304.7325
37.6900	12323.5725
37.7000	12156.8300
37.7100	12179.4800
37.7200	12278.5400
37.7300	12245.0575
37.7400	12065.7425
37.7500	11865.8500
37.7600	12233.2675
37.7700	12686.8100
37.7800	12383.0475
37.7900	12060.9850
37.8000	12647.2675
37.8100	13180.6925
37.8200	12588.5725
37.8300	12048.6425
37.8400	12213.5950
37.8500	12289.0675
37.8600	12194.5700
37.8700	12302.2100
37.8800	12264.5825
37.8900	12350.2750
37.9000	12406.0975
37.9100	12137.7975
37.9200	11896.6050
37.9300	11525.2525
37.9400	11665.5025
37.9500	12106.3050
37.9600	12502.1475
37.9700	12652.0425
37.9800	12319.6100
37.9900	12281.8950
38.0000	12368.8450
38.0100	12285.5550
38.0200	12326.3725
38.0300	12459.6325
38.0400	12459.4950
38.0500	12483.3025
38.0600	12200.4675
38.0700	12026.0125
38.0800	12073.8400
38.0900	12294.2700
38.1000	12675.1050
38.1100	12615.6275
38.1200	12667.5000
38.1300	12540.4600
38.1400	12146.7725
38.1500	12205.2575
38.1600	12491.3075
38.1700	12496.4725
38.1800	12096.9775
38.1900	12019.0850
38.2000	11849.6900
38.2100	12207.3375
38.2200	12366.9300
38.2300	12273.7000
38.2400	12392.6825
38.2500	12334.6200
38.2600	12656.5700
38.2700	12595.7650
38.2800	12121.0925
38.2900	12227.1800
38.3000	12405.4475
38.3100	12401.9050
38.3200	12221.8450
38.3300	12029.5925
38.3400	12398.1525
38.3500	12883.1750
38.3600	12425.2125
38.3700	12023.8600
38.3800	12092.5575
38.3900	12339.5825
38.4000	12247.9550
38.4100	12191.4075
38.4200	12278.2050
38.4300	12315.9450
38.4400	12264.1225
38.4500	12349.8900
38.4600	12618.9800
38.4700	12680.0925
38.4800	12732.2100
38.4900	12827.3775
38.5000	12704.1350
38.5100	12127.9475
38.5200	11740.9000
38.5300	11787.8725
38.5400	11987.7100
38.5500	12107.5950
38.5600	12181.5700
38.5700	12376.7600
38.5800	12456.1975
38.5900	12496.5900
38.6000	12622.2225
38.6100	12656.2775
38.6200	12317.9850
38.6300	12185.0150
38.6400	12317.9850
38.6500	12126.7175
38.6600	11887.1800
38.6700	12425.0600
38.6800	12539.2400
38.6900	12200.0000
38.7000	12575.4375
38.7100	12364.1950
38.7200	12167.6375
38.7300	12480.2125
38.7400	12532.1925
38.7500	12401.0350
38.7600	12228.9125
38.7700	12406.3450
38.7800	12510.2500
38.7900	12682.4450
38.8000	13084.8250
38.8100	13144.9175
38.8200	13340.4825
38.8300	13548.0375
38.8400	13234.5825
38.8500	13168.2650
38.8600	13139.7900
38.8700	12931.5125
38.8800	13286.3125
38.8900	13370.2025
38.9000	12993.1375
38.9100	12857.9125
38.9200	12718.8325
38.9300	12285.5125
38.9400	12095.9950
38.9500	12410.0050
38.9600	12503.4450
38.9700	12165.0850
38.9800	11906.5425
38.9900	12057.6900
39.0000	12198.6375
39.0100	12443.9575
39.0200	12708.6575
39.0300	12552.3600
39.0400	12296.3325
39.0500	12312.1925
39.0600	12425.2875
39.0700	12166.3425
39.0800	11727.3825
39.0900	12117.2725
39.1000	12323.7225
39.1100	11999.5125
39.1200	11957.6275
39.1300	11736.4550
39.1400	11926.2525
39.1500	12291.8750
39.1600	12240.2650
39.1700	12200.3825
39.1800	12233.7000
39.1900	12258.5075
39.2000	12283.6650
39.2100	12503.7575
39.2200	12674.5575
39.2300	12429.7175
39.2400	12411.3325
39.2500	12422.4450
39.2600	12537.1700
39.2700	12664.7925
39.2800	12348.0925
39.2900	12149.6525
39.3000	12318.5375
39.3100	12567.0825
39.3200	12700.6050
39.3300	12909.1100
39.3400	12890.9350
39.3500	12524.0725
39.3600	12091.0250
39.3700	12292.4950
39.3800	12841.8050
39.3900	12666.6850
39.4000	12216.8150
39.4100	12041.7550
39.4200	12232.5875
39.4300	12557.9450
39.4400	12426.1875
39.4500	12365.6125
39.4600	12500.2450
39.4700	12631.9325
39.4800	12899.0550
39.4900	12711.3950
39.5000	12070.7050
39.5100	12004.6650
39.5200	12316.4400
39.5300	12333.3325
39.5400	12218.4975
39.5500	12091.8050
39.5600	12255.2225
39.5700	12351.5675
39.5800	12258.5000
39.5900	12405.0250
39.6000	12305.8500
39.6100	12017.0500
39.6200	12528.6575
39.6300	13083.3325
39.6400	12807.3925
39.6500	12362.6300
39.6600	12102.8175
39.6700	12210.3400
39.6800	12336.3575
39.6900	12088.0250
39.7000	12046.2300
39.7100	12287.4975
39.7200	12537.3675
39.7300	12666.6675
39.7400	12417.7500
39.7500	11861.2475
39.7600	12014.7125
39.7700	12588.7000
39.7800	12602.7050
39.7900	12613.1975
39.8000	12700.0000
39.8100	12460.9225
39.8200	12088.5500
39.8300	12324.5075
39.8400	12804.0450
39.8500	12622.2800
39.8600	12269.1100
39.8700	12557.1250
39.8800	12719.7900
39.8900	12704.5450
39.9000	12910.5400
39.9100	12843.0175
39.9200	12548.9275
39.9300	12084.8125
39.9400	11970.7175
39.9500	12348.2600
39.9600	12510.8450
39.9700	12481.1350
39.9800	12431.9675
39.9900	12244.8125
40.0000	12614.3550
40.0100	12917.7375
40.0200	12868.8450
40.0300	12693.2850
40.0400	12245.7725
40.0500	12025.3525
40.0600	12305.0975
40.0700	12436.8550
40.0800	12367.8575
40.0900	12411.8325
40.1000	12421.5675
40.1100	12288.3025
40.1200	12355.3300
40.1300	12570.5325
40.1400	12502.6625
40.1500	12518.9150
40.1600	12333.1925
40.1700	12067.1950
40.1800	12398.1200
40.1900	12655.6350
40.2000	12517.4900
40.2100	12229.0950
40.2200	12298.5700
40.2300	12377.5450
40.2400	12617.2300
40.2500	12717.9600
40.2600	12660.6750
40.2700	12665.1500
40.2800	12515.2275
40.2900	12448.4500
40.3000	12670.5275
40.3100	12992.0850
40.3200	12676.5275
40.3300	12589.6825
40.3400	13015.6850
40.3500	12858.2525
40.3600	12534.1800
40.3700	12497.2050
40.3800	12710.2100
40.3900	12712.1125
40.4000	12932.1225
40.4100	13145.1925
40.4200	13112.0125
40.4300	12788.3950
40.4400	12731.7500
40.4500	12707.1350
40.4600	12624.1500
40.4700	12857.3900
40.4800	12988.9450
40.4900	12763.3725
40.5000	12675.4800
40.5100	12833.3325
40.5200	12708.1400
40.5300	12638.2700
40.5400	12874.9075
40.5500	12871.8750
40.5600	12769.2950
40.5700	12724.2675
40.5800	12777.9225
40.5900	12899.5625
40.6000	12607.2975
40.6100	12806.1675
40.6200	13108.2400
40.6300	12754.3025
40.6400	12141.8925
40.6500	12494.7075
40.6600	12948.5475
40.6700	12766.0000
40.6800	12830.1350
40.6900	12913.3425
40.7000	12879.3425
40.7100	13062.5850
40.7200	12943.5850
40.7300	12836.8825
40.7400	13033.0775
40.7500	12708.5075
40.7600	12287.8775
40.7700	12161.8700
40.7800	12297.6900
40.7900	12745.0700
40.8000	12750.5725
40.8100	12620.5950
40.8200	13011.7825
40.8300	13007.3750
40.8400	12935.8075
40.8500	12661.5175
40.8600	12536.1200
40.8700	12691.9175
40.8800	12365.8125
40.8900	12239.7675
40.9000	12380.0800
40.9100	12424.4425
40.9200	12254.2000
40.9300	12366.7900
40.9400	12740.3450
40.9500	12946.1175
40.9600	13055.7625
40.9700	12798.3950
40.9800	13175.7325
40.9900	13466.9175
41.0000	13050.0000
41.0100	12827.4625
41.0200	12544.4500
41.0300	12624.9600
41.0400	12752.6275
41.0500	12766.9475
41.0600	12394.2250
41.0700	12288.8000
41.0800	12691.3775
41.0900	12639.7925
41.1000	12696.6025
41.1100	12814.4725
41.1200	12570.5900
41.1300	12579.4350
41.1400	12556.8475
41.1500	12347.8400
41.1600	12053.8225
41.1700	12349.3825
41.1800	12699.2650
41.1900	12758.8850
41.2000	13018.6225
41.2100	13112.3575
41.2200	12904.5025
41.2300	12804.7050
41.2400	12730.4125
41.2500	12426.5775
41.2600	12463.9000
41.2700	12351.3725
41.2800	12318.9200
41.2900	12760.7875
41.3000	12973.8600
41.3100	12882.1425
41.3200	12690.5050
41.3300	12997.1800
41.3400	13042.9425
41.3500	12810.0275
41.3600	12876.6625
41.3700	12736.9250
41.3800	12506.5600
41.3900	12520.1825
41.4000	12390.3075
41.4100	12518.6025
41.4200	13127.8775
41.4300	13305.5075
41.4400	12926.7325
41.4500	13081.4550
41.4600	13333.3325
41.4700	13142.6525
41.4800	12987.9075
41.4900	13147.5300
41.5000	12988.0600
41.5100	12932.0925
41.5200	13059.4700
41.5300	13047.7900
41.5400	12947.1125
41.5500	13046.8625
41.5600	13295.5125
41.5700	13431.6025
41.5800	13410.1100
41.5900	13372.1200
41.6000	13429.0625
41.6100	13107.4900
41.6200	13331.2325
41.6300	13840.2250
41.6400	13983.3325
41.6500	13861.1925
41.6600	14000.5200
41.6700	14379.4425
41.6800	14114.1225
41.6900	14006.5825
41.7000	14017.4775
41.7100	14150.3975
41.7200	13972.0650
41.7300	14205.4450
41.7400	14719.0650
41.7500	14597.6650
41.7600	14337.3225
41.7700	14512.9300
41.7800	14833.3325
41.7900	14845.9625
41.8000	14759.4525
41.8100	14646.3200
41.8200	14611.6075
41.8300	14157.1625
41.8400	13777.0600
41.8500	14054.9200
41.8600	14495.7825
41.8700	14552.0875
41.8800	14575.2200
41.8900	14289.5675
41.9000	14275.0950
41.9100	14084.1025
41.9200	14013.4225
41.9300	14484.1175
41.9400	14766.6675
41.9500	14853.2675
41.9600	15018.5325
41.9700	14846.4000
41.9800	14740.3050
41.9900	15039.2350
42.0000	14641.0500
42.0100	14485.8725
42.0200	14655.5775
42.0300	14527.5250
42.0400	14821.1075
42.0500	14958.7425
42.0600	15038.2150
42.0700	14888.7725
42.0800	14991.6525
42.0900	14618.2200
42.1000	14953.2725
42.1100	15247.0925
42.1200	14712.3450
42.1300	14657.0775
42.1400	14836.7975
42.1500	14702.8200
42.1600	14911.0875
42.1700	15154.6475
42.1800	14959.2900
42.1900	14697.9475
42.2000	14825.2325
42.2100	15037.4850
42.2200	15265.4250
42.2300	15322.7575
42.2400	15280.9075
42.2500	14839.3725
42.2600	14919.6975
42.2700	15334.4550
42.2800	15354.8225
42.2900	15297.8500
42.3000	15227.4275
42.3100	15128.1950
42.3200	15078.5800
42.3300	15306.8625
42.3400	15391.1200
42.3500	15484.2650
42.3600	15581.1100
42.3700	15717.5525
42.3800	15650.6775
42.3900	15548.3525
42.4000	15676.6925
42.4100	15685.7025
42.4200	15701.9800
42.4300	15486.1675
42.4400	15482.5675
42.4500	16041.4450
42.4600	16694.8925
42.4700	16555.0675
42.4800	16146.2575
42.4900	16226.2700
42.5000	16606.3075
42.5100	16603.1050
42.5200	16950.4400
42.5300	16799.3325
42.5400	17248.1400
42.5500	17637.0000
42.5600	17569.3725
42.5700	17092.7275
42.5800	17638.7600
42.5900	17952.4000
42.6000	17723.3575
42.6100	17963.5400
42.6200	18408.8800
42.6300	18760.7525
42.6400	19038.0125
42.6500	19717.3350
42.6600	19754.8250
42.6700	19964.5675
42.6800	20420.4475
42.6900	20391.6350
42.7000	21189.4500
42.7100	21556.4825
42.7200	22139.6075
42.7300	22767.1200
42.7400	23161.0850
42.7500	23227.6725
42.7600	23788.3100
42.7700	24709.7775
42.7800	25853.6375
42.7900	26898.3100
42.8000	27527.0475
42.8100	27722.1725
42.8200	27958.7100
42.8300	28839.3325
42.8400	29694.5175
42.8500	30077.4325
42.8600	31101.9675
42.8700	31773.7800
42.8800	32484.0475
42.8900	33549.6950
42.9000	34819.2025
42.9100	35756.6650
42.9200	37604.3975
42.9300	38979.2350
42.9400	40073.7675
42.9500	41781.5900
42.9600	44448.5950
42.9700	46511.4025
42.9800	49218.1900
42.9900	52401.1900
43.0000	55995.2625
43.0100	59386.3625
43.0200	63467.7150
43.0300	68287.5650
43.0400	74051.6775
43.0500	81863.1950
43.0600	91437.4650
43.0700	102046.3375
43.0800	113947.7775
43.0900	129124.8775
43.1000	149778.5900
43.1100	173199.3675
43.1200	197884.2800
43.1300	228949.3250
43.1400	263580.7750
43.1500	297873.2575
43.1600	333887.9400
43.1700	369558.4400
43.1800	401830.2975
43.1900	429318.7975
43.2000	446952.8300
43.2100	455978.9825
43.2200	456625.8225
43.2300	446007.8300
43.2400	426713.0025
43.2500	404153.9300
43.2600	383468.3350
43.2700	364716.0500
43.2800	346567.6075
43.2900	331124.2275
43.3000	320053.6275
43.3100	307236.7950
43.3200	291509.7200
43.3300	275318.0000
43.3400	257911.2000
43.3500	237253.5850
43.3600	212782.1250
43.3700	187700.2550
43.3800	163573.9325
43.3900	141337.8100
43.4000	122814.2025
43.4100	108323.2550
43.4200	95011.6475
43.4300	84660.4975
43.4400	76466.6900
43.4500	69477.9875
43.4600	62930.1800
43.4700	58025.7275
43.4800	53955.3575
43.4900	51028.9600
43.5000	48180.2675
43.5100	44995.0325
43.5200	44060.8925
43.5300	41398.0575
43.5400	39493.5325
43.5500	36964.4375
43.5600	34911.0625
43.5700	34153.8050
43.5800	33454.3425
43.5900	31768.4625
43.6000	30965.9150
43.6100	29633.3275
43.6200	28374.1825
43.6300	27647.6700
43.6400	26678.0975
43.6500	25920.1350
43.6600	25148.4275
43.6700	24037.7175
43.6800	23200.5400
43.6900	22762.0700
43.7000	22315.8025
43.7100	21938.0925
43.7200	21219.5150
43.7300	20694.9250
43.7400	20374.7000
43.7500	19854.9550
43.7600	19629.8325
43.7700	19057.5750
43.7800	19464.2300
43.7900	18992.9675
43.8000	18510.2400
43.8100	17762.3600
43.8200	17656.2125
43.8300	17903.4875
43.8400	17490.8650
43.8500	17279.6850
43.8600	17157.7825
43.8700	17385.1675
43.8800	16965.6000
43.8900	16726.5925
43.9000	16797.5400
43.9100	17012.0025
43.9200	16658.0675
43.9300	16345.3250
43.9400	15812.0225
43.9500	15966.9250
43.9600	16437.0350
43.9700	16445.5150
43.9800	16276.6550
43.9900	16460.9750
44.0000	16275.7500
44.0100	15581.6300
44.0200	15620.4450
44.0300	15969.0150
44.0400	16127.9500
44.0500	15657.3525
44.0600	15486.3350
44.0700	15440.9050
44.0800	15371.2625
44.0900	15286.2650
44.1000	15270.1900
44.1100	14898.8925
44.1200	14838.4625
44.1300	15207.2000
44.1400	15393.1025
44.1500	15698.7550
44.1600	15782.9250
44.1700	15310.1775
44.1800	15405.6675
44.1900	15417.6125
44.2000	15269.9775
44.2100	15033.3200
44.2200	14470.0200
44.2300	14508.6450
44.2400	14614.9450
44.2500	14386.3175
44.2600	14608.2700
44.2700	14913.4825
44.2800	14932.9100
44.2900	14088.5925
44.3000	14055.5275
44.3100	15152.4575
44.3200	15129.8000
44.3300	14597.7175
44.3400	14519.5925
44.3500	14777.4575
44.3600	14984.6800
44.3700	14962.1600
44.3800	14573.4625
44.3900	14475.8775
44.4000	14506.9425
44.4100	14434.9150
44.4200	14536.1300
44.4300	14352.8775
44.4400	14327.8600
44.4500	14556.0725
44.4600	14321.6925
44.4700	14497.1575
44.4800	14598.3800
44.4900	14371.2025
44.5000	14352.9050
44.5100	14230.7650
44.5200	14490.7325
44.5300	14207.7075
44.5400	13995.4950
44.5500	13958.8775
44.5600	14191.7125
44.5700	14112.1050
44.5800	13946.1325
44.5900	14341.6525
44.6000	14349.8125
44.6100	14558.9350
44.6200	13921.1375
44.6300	13861.6475
44.6400	14212.8125
44.6500	14104.1250
44.6600	14059.0200
44.6700	13973.7625
44.6800	14360.7875
44.6900	14527.9675
44.7000	14233.0650
44.7100	15043.8775
44.7200	15178.5025
44.7300	14659.3275
44.7400	14370.9275
44.7500	13907.1975
44.7600	14013.1050
44.7700	13954.0375
44.7800	13918.2875
44.7900	13746.5450
44.8000	13691.3675
44.8100	13865.0400
44.8200	14441.4125
44.8300	14751.3675
44.8400	14634.0450
44.8500	14599.2600
44.8600	14467.1775
44.8700	13974.5800
44.8800	14231.0250
44.8900	13966.4500
44.9000	13518.8475
44.9100	13617.5775
44.9200	13684.6175
44.9300	14137.3100
44.9400	14300.0675
44.9500	14012.9450
44.9600	13701.3625
44.9700	13460.6075
44.9800	13569.4450
44.9900	13699.3300
45.0000	13986.4175
45.0100	14193.4600
45.0200	13985.3975
45.0300	13812.0575
45.0400	14633.3250
45.0500	14278.5225
45.0600	13784.1425
45.0700	14168.2975
45.0800	13873.6300
45.0900	13734.8225
45.1000	14003.9825
45.1100	13566.6675
45.1200	13642.4750
45.1300	13877.3000
45.1400	13883.0775
45.1500	14151.5900
45.1600	14115.0500
45.1700	14099.0725
45.1800	13926.6375
45.1900	14039.8025
45.2000	13731.6025
45.2100	13794.5150
45.2200	13963.5400
45.2300	14342.4025
45.2400	14101.8650
45.2500	14103.7800
45.2600	13898.1025
45.2700	14012.6500
45.2800	14214.9425
45.2900	14094.9300
45.3000	13812.0550
45.3100	13613.3775
45.3200	14023.9675
45.3300	14057.2875
45.3400	14094.2425
45.3500	13962.7450
45.3600	13400.7150
45.3700	13652.0300
45.3800	13892.7825
45.3900	14003.5325
45.4000	14244.7675
45.4100	13298.7275
45.4200	13394.4750
45.4300	13879.6875
45.4400	13478.5975
45.4500	13542.4075
45.4600	13956.5150
45.4700	13560.6400
45.4800	13578.7625
45.4900	13503.5325
45.5000	13544.8725
45.5100	13688.7075
45.5200	13822.7975
45.5300	13821.8875
45.5400	13847.7325
45.5500	13298.7550
45.5600	12913.1825
45.5700	12997.3675
45.5800	13370.1375
45.5900	13397.1875
45.6000	13636.6700
45.6100	14305.1500
45.6200	13995.6075
45.6300	13449.4850
45.6400	13479.3575
45.6500	13774.7025
45.6600	13476.5025
45.6700	13528.4050
45.6800	13755.0850
45.6900	13337.9575
45.7000	12883.0575
45.7100	12968.8375
45.7200	13549.7925
45.7300	13436.1825
45.7400	13303.7775
45.7500	13530.0850
45.7600	13569.9425
45.7700	13473.2375
45.7800	13256.6600
45.7900	12963.5575
45.8000	12606.1850
45.8100	13302.1275
45.8200	14149.7350
45.8300	14148.0325
45.8400	13488.0300
45.8500	13122.0675
45.8600	13499.7325
45.8700	13566.6675
45.8800	13488.2800
45.8900	13235.1150
45.9000	13630.5100
45.9100	14012.3600
45.9200	13604.6525
45.9300	13377.8775
45.9400	13229.5700
45.9500	13257.5825
45.9600	13214.2450
45.9700	13521.8000
45.9800	13612.9600
45.9900	13319.8575
46.0000	13419.3375
46.0100	13684.7975
46.0200	13323.7600
46.0300	13617.3100
46.0400	13792.2725
46.0500	13638.7300
46.0600	13629.5450
46.0700	13139.3950
46.0800	13122.2425
46.0900	13829.1675
46.1000	13576.2350
46.1100	13310.9125
46.1200	13779.7275
46.1300	13502.2450
46.1400	13869.6175
46.1500	13464.2225
46.1600	13313.3700
46.1700	13651.3075
46.1800	13457.6675
46.1900	12985.6350
46.2000	13284.2700
46.2100	12974.5225
46.2200	13336.6425
46.2300	13845.4775
46.2400	14059.0750
46.2500	14045.6650
46.2600	13860.2400
46.2700	14130.3275
46.2800	14059.6900
46.2900	13794.0150
46.3000	13653.2175
46.3100	13172.0600
46.3200	13418.3625
46.3300	13671.0525
46.3400	13309.3550
46.3500	13040.4800
46.3600	13415.7400
46.3700	13581.3625
46.3800	13655.8650
46.3900	13692.1125
46.4000	13715.8150
46.4100	13633.3325
46.4200	13656.5850
46.4300	13792.7675
46.4400	13815.3950
46.4500	13249.6125
46.4600	12919.1275
46.4700	13247.1250
46.4800	13267.7400
46.4900	13513.4350
46.5000	13717.3300
46.5100	12790.6175
46.5200	12617.4275
46.5300	12831.5225
46.5400	13058.1825
46.5500	13013.8450
46.5600	13047.8575
46.5700	13235.5875
46.5800	13081.2625
46.5900	13511.2900
46.6000	13530.0675
46.6100	13064.1175
46.6200	13672.2475
46.6300	13366.9100
46.6400	13041.1875
46.6500	13637.8375
46.6600	14264.5775
46.6700	13798.6825
46.6800	13290.3325
46.6900	13695.3825
46.7000	13364.9025
46.7100	13162.5150
46.7200	13355.8900
46.7300	12846.0775
46.7400	13589.2050
46.7500	13519.8725
46.7600	13388.2250
46.7700	13181.8800
46.7800	13727.2000
46.7900	13380.0025
46.8000	13118.6200
46.8100	13219.3200
46.8200	13294.2225
46.8300	13648.3575
46.8400	13677.0375
46.8500	12954.3575
46.8600	13176.7800
46.8700	13727.4375
46.8800	13469.7050
46.8900	13156.8075
46.9000	12942.3750
46.9100	13546.2825
46.9200	13515.9100
46.9300	13036.2500
46.9400	13444.9450
46.9500	13476.9075
46.9600	12922.7875
46.9700	13531.1050
46.9800	13139.8175
46.9900	13050.3250
47.0000	12861.6025
47.0100	12914.1775
47.0200	13384.3075
47.0300	13526.0675
47.0400	13766.6675
47.0500	13691.6350
47.0600	13221.7600
47.0700	13008.9700
47.0800	13187.9475
47.0900	12835.8100
47.1000	12914.2075
47.1100	13295.6500
47.1200	13305.2425
47.1300	12942.6475
47.1400	12978.2200
47.1500	13540.6100
47.1600	14120.4625
47.1700	13869.4050
47.1800	13884.1400
47.1900	13357.9125
47.2000	13635.0175
47.2100	13343.6225
47.2200	13825.7775
47.2300	13345.1250
47.2400	13188.1200
47.2500	13576.2825
47.2600	13288.3150
47.2700	13094.6500
47.2800	13571.3800
47.2900	13517.7275
47.3000	13033.0775
47.3100	13119.3050
47.3200	13112.6225
47.3300	13630.2350
47.3400	13719.2425
47.3500	13102.7850
47.3600	12915.1475
47.3700	12439.8050
47.3800	13368.4750
47.3900	13032.3375
47.4000	12894.2725
47.4100	13371.9525
47.4200	13297.7300
47.4300	13287.8625
47.4400	13287.3150
47.4500	13095.4975
47.4600	13055.4400
47.4700	12996.7700
47.4800	13172.6625
47.4900	13745.5450
47.5000	13685.5725
47.5100	13481.1175
47.5200	13404.8225
47.5300	13070.4825
47.5400	13489.4050
47.5500	13151.8125
47.5600	12916.3325
47.5700	13447.0650
47.5800	13236.3025
47.5900	12767.1425
47.6000	13253.3825
47.6100	13508.6150
47.6200	13568.8150
47.6300	13523.3700
47.6400	13093.1775
47.6500	12941.8500
47.6600	13004.2475
47.6700	13024.8650
47.6800	13061.6675
47.6900	13682.9850
47.7000	13435.3075
47.7100	13278.9175
47.7200	12920.8700
47.7300	13156.1450
47.7400	13789.5575
47.7500	13800.2325
47.7600	13543.9775
47.7700	13395.6725
47.7800	13503.8400
47.7900	13678.6250
47.8000	13856.8300
47.8100	13556.9050
47.8200	12837.5975
47.8300	13352.0200
47.8400	13362.6375
47.8500	13389.5750
47.8600	13711.8850
47.8700	13084.6350
47.8800	13258.4700
47.8900	13588.4975
47.9000	13724.2775
47.9100	13470.2075
47.9200	13007.8675
47.9300	13086.2750
47.9400	13276.3375
47.9500	13566.8700
47.9600	13297.2375
47.9700	13264.2775
47.9800	14102.4375
47.9900	13791.5900
48.0000	13189.8000
48.0100	12989.0725
48.0200	13071.4775
48.0300	13303.9250
48.0400	12831.8300
48.0500	12927.3275
48.0600	12759.4175
48.0700	12912.1925
48.0800	13546.4350
48.0900	13567.9050
48.1000	12918.5275
48.1100	13042.7175
48.1200	13894.4900
48.1300	13740.6150
48.1400	13887.4250
48.1500	13458.0925
48.1600	12957.7900
48.1700	12717.2650
48.1800	12502.5725
48.1900	13001.9975
48.2000	13579.2750
48.2100	13572.0300
48.2200	12768.0975
48.2300	13732.1650
48.2400	13556.6675
48.2500	13368.7700
48.2600	13629.5800
48.2700	13336.0275
48.2800	13498.2450
48.2900	13437.8725
48.3000	13051.7425
48.3100	13106.6150
48.3200	13417.1100
48.3300	13116.0800
48.3400	12956.3500
48.3500	12866.6675
48.3600	12878.6200
48.3700	13070.1350
48.3800	13784.1425
48.3900	13343.2375
48.4000	13264.8025
48.4100	13091.6050
48.4200	13038.4175
48.4300	13216.6600
48.4400	13053.3750
48.4500	12951.5475
48.4600	13151.3175
48.4700	13511.0600
48.4800	13887.1750
48.4900	13619.9325
48.5000	13661.3900
48.5100	13778.0150
48.5200	13786.4025
48.5300	12881.7225
48.5400	12932.4325
48.5500	13556.3925
48.5600	13575.2600
48.5700	13172.2250
48.5800	13033.4625
48.5900	12797.0150
48.6000	13612.1900
48.6100	14051.5650
48.6200	14044.8500
48.6300	13806.9375
48.6400	13554.6400
48.6500	13681.6875
48.6600	14510.9725
48.6700	14668.5925
48.6800	13568.3900
48.6900	13887.8150
48.7000	13615.1275
48.7100	13799.8250
48.7200	14122.8225
48.7300	14036.1125
48.7400	14278.0400
48.7500	14685.8275
48.7600	14149.7175
48.7700	13615.6550
48.7800	13462.6875
48.7900	13806.1400
48.8000	14228.3175
48.8100	14310.8300
48.8200	13920.2325
48.8300	14167.8825
48.8400	14547.6725
48.8500	14595.7350
48.8600	13531.7050
48.8700	14048.5825
48.8800	14048.8600
48.8900	14194.1725
48.9000	13931.7975
48.9100	13748.6750
48.9200	13884.7175
48.9300	13566.5375
48.9400	13958.1375
48.9500	14194.9075
48.9600	13789.9025
48.9700	14085.3925
48.9800	14467.0650
48.9900	14321.1375
49.0000	14709.6625
49.0100	14233.9325
49.0200	14078.0025
49.0300	14394.6875
49.0400	14353.1700
49.0500	14563.5800
49.0600	14304.4850
49.0700	14004.5350
49.0800	14438.2975
49.0900	14267.6325
49.1000	13928.4550
49.1100	14444.8425
49.1200	14179.4975
49.1300	14157.5150
49.1400	14414.5175
49.1500	13987.1175
49.1600	14091.1200
49.1700	14789.9950
49.1800	14665.4225
49.1900	14627.6850
49.2000	14342.5950
49.2100	14230.3400
49.2200	13963.7600
49.2300	13759.2925
49.2400	14256.3550
49.2500	13790.5200
49.2600	14898.3375
49.2700	14217.7850
49.2800	14014.2850
49.2900	13954.8900
49.3000	13661.1925
49.3100	14698.5975
49.3200	14861.4300
49.3300	14361.6350
49.3400	14524.7725
49.3500	14633.3325
49.3600	14628.7450
49.3700	14570.0925
49.3800	14610.9850
49.3900	14538.9875
49.4000	14614.4150
49.4100	14571.0125
49.4200	14430.0975
49.4300	14846.6725
49.4400	14785.6500
49.4500	14593.2200
49.4600	14706.0050
49.4700	14312.3150
49.4800	14295.4625
49.4900	14974.7725
49.5000	15301.1825
49.5100	14822.6700
49.5200	14693.1900
49.5300	15059.0550
49.5400	14694.7475
49.5500	14686.6750
49.5600	15749.9675
49.5700	15964.8350
49.5800	15411.7275
49.5900	15089.4750
49.6000	15177.2250
49.6100	15112.7075
49.6200	15595.8875
49.6300	16026.9475
49.6400	15632.7700
49.6500	15133.7175
49.6600	15663.7075
49.6700	15645.1175
49.6800	16129.2725
49.6900	16566.0325
49.7000	16045.6225
49.7100	16499.3875
49.7200	16255.8050
49.7300	16925.6325
49.7400	17333.9500
49.7500	17054.4625
49.7600	16892.0075
49.7700	17599.0725
49.7800	17574.1025
49.7900	17417.5850
49.8000	17487.1700
49.8100	18393.0775
49.8200	17976.1175
49.8300	17956.7150
49.8400	19811.9375
49.8500	19438.6500
49.8600	19562.4075
49.8700	20058.8100
49.8800	19641.0425
49.8900	20171.6025
49.9000	21812.5800
49.9100	22373.9400
49.9200	22787.7750
49.9300	22235.6425
49.9400	21994.3650
49.9500	22551.7025
49.9600	23205.0600
49.9700	23035.2325
49.9800	24121.7425
49.9900	25865.0575
50.0000	26514.0475
50.0100	27159.2300
50.0200	28009.5750
50.0300	28209.5125
50.0400	28500.0200
50.0500	30517.4500
50.0600	30577.6375
50.0700	31572.1250
50.0800	33469.7925
50.0900	34989.0375
50.1000	36555.9925
50.1100	37789.6975
50.1200	39095.2925
50.1300	41553.7550
50.1400	43210.2150
50.1500	46450.4450
50.1600	49472.6500
50.1700	51939.8350
50.1800	55217.9800
50.1900	59494.6350
50.2000	63389.6850
50.2100	69771.8775
50.2200	74698.2150
50.2300	80620.1700
50.2400	85991.3925
50.2500	92780.1275
50.2600	102025.1125
50.2700	109656.2050
50.2800	117834.6750
50.2900	129423.9200
50.3000	137518.3525
50.3100	143666.8125
50.3200	153773.7425
50.3300	159780.0550
50.3400	160497.8050
50.3500	159600.6300
50.3600	159604.8050
50.3700	159085.7250
50.3800	153291.3150
50.3900	146853.3500
50.4000	143658.8225
50.4100	137951.1850
50.4200	132922.8825
50.4300	128923.7550
50.4400	125811.8375
50.4500	122411.0725
50.4600	120709.3625
50.4700	116178.2125
50.4800	112574.2575
50.4900	107852.7425
50.5000	102473.2375
50.5100	97073.5975
50.5200	89230.1675
50.5300	82516.6400
50.5400	76352.7800
50.5500	70798.9225
50.5600	67463.4600
50.5700	59576.3125
50.5800	56656.0900
50.5900	53088.0850
50.6000	49989.4950
50.6100	47415.7800
50.6200	44077.3100
50.6300	41608.4525
50.6400	38522.2725
50.6500	36433.4475
50.6600	34724.8375
50.6700	33821.5650
50.6800	32240.6325
50.6900	31279.0575
50.7000	29314.7900
50.7100	27469.3675
50.7200	27549.3025
50.7300	26903.8975
50.7400	26421.1425
50.7500	25934.3775
50.7600	24692.4075
50.7700	23754.8875
50.7800	23263.4075
50.7900	21819.7725
50.8000	21310.9450
50.8100	22391.7925
50.8200	21382.5400
50.8300	21327.2975
50.8400	20349.3150
50.8500	18940.3325
50.8600	19933.7950
50.8700	19204.6900
50.8800	17955.8750
50.8900	18223.5500
50.9000	18521.1800
50.9100	17938.4575
50.9200	16628.8125
50.9300	16425.2400
50.9400	16842.4625
50.9500	17284.0000
50.9600	17306.8125
50.9700	16803.7225
50.9800	16136.2900
50.9900	15439.3000
51.0000	15748.7625
51.0100	15684.8550
51.0200	15760.0750
51.0300	15399.4100
51.0400	15371.3075
51.0500	15628.7700
51.0600	15364.7025
51.0700	15259.0950
51.0800	15788.8950
51.0900	15114.8050
51.1000	15002.0900
51.1100	15137.9500
51.1200	15426.2825
51.1300	14961.9725
51.1400	14648.5475
51.1500	14547.8625
51.1600	14401.6300
51.1700	14515.0700
51.1800	14394.1950
51.1900	13972.5675
51.2000	14428.4250
51.2100	15333.1250
51.2200	15309.5150
51.2300	14732.1350
51.2400	14634.8925
51.2500	14769.5200
51.2600	15009.8050
51.2700	14397.8300
51.2800	14198.0625
51.2900	14020.0925
51.3000	14343.6675
51.3100	13716.9900
51.3200	13756.2900
51.3300	14410.7175
51.3400	13764.8925
51.3500	13572.2500
51.3600	14213.6200
51.3700	13848.2600
51.3800	13634.3675
51.3900	13767.1650
51.4000	13834.7700
51.4100	14031.0300
51.4200	13702.8725
51.4300	14131.6400
51.4400	13865.1475
51.4500	13622.0750
51.4600	14548.0700
51.4700	14197.8175
51.4800	13782.1775
51.4900	13548.5175
51.5000	13233.5525
51.5100	13283.1275
51.5200	13231.4725
51.5300	12752.0225
51.5400	13318.2600
51.5500	13799.0450
51.5600	13482.8775
51.5700	13316.9550
51.5800	13434.7575
51.5900	14081.8675
51.6000	13317.2400
51.6100	13667.0750
51.6200	13966.6300
51.6300	13932.9275
51.6400	13433.5300
51.6500	13800.0175
51.6600	13866.6650
51.6700	13850.0050
51.6800	13650.1125
51.6900	13500.1250
51.7000	13816.3175
51.7100	13933.1725
51.7200	13434.1600
51.7300	13433.3325
51.7400	13499.8525
51.7500	13998.7650
51.7600	13750.6850
51.7700	13101.9575
51.7800	13415.6275
51.7900	13416.6675
51.8000	13101.2125
51.8100	13332.3775
51.8200	13598.8350
51.8300	13400.9275
51.8400	13118.0575
51.8500	12486.6150
51.8600	13345.2775
51.8700	13432.8575
51.8800	13632.1350
51.8900	13153.0250
51.9000	13216.2325
51.9100	13018.0250
51.9200	12983.5700
51.9300	14058.7225
51.9400	13917.8075
51.9500	13883.5950
51.9600	13585.7750
51.9700	13170.1700
51.9800	12951.8800
51.9900	13362.9425
52.0000	13399.6925
52.0100	13763.1925
52.0200	13717.1525
52.0300	13073.1700
52.0400	13545.0350
52.0500	13599.4725
52.0600	13319.7275
52.0700	13432.0425
52.0800	13021.3900
52.0900	12687.2000
52.1000	13770.2825
52.1100	14293.7325
52.1200	14020.1775
52.1300	13753.3750
52.1400	13240.0100
52.1500	13315.5675
52.1600	13760.6150
52.1700	13043.3900
52.1800	13115.5025
52.1900	13198.8125
52.2000	13758.4500
52.2100	13060.5800
52.2200	12869.4225
52.2300	13211.3150
52.2400	13905.7825
52.2500	13194.9300
52.2600	13150.5350
52.2700	12822.1125
52.2800	12947.7875
52.2900	13179.4000
52.3000	13134.1900
52.3100	12642.0225
52.3200	12993.5325
52.3300	13769.3125
52.3400	13488.7800
52.3500	13139.7800
52.3600	13345.9525
52.3700	13856.8825
52.3800	13817.6275
52.3900	13130.2850
52.4000	13165.6800
52.4100	13411.6750
52.4200	13335.0200
52.4300	13153.7550
52.4400	12905.1850
52.4500	12834.7325
52.4600	13029.0825
52.4700	13114.8725
52.4800	13100.3625
52.4900	13458.5900
52.5000	13613.3250
52.5100	13079.0650
52.5200	13327.2550
52.5300	13235.6375
52.5400	12810.1000
52.5500	13190.5750
52.5600	12988.4950
52.5700	13520.0925
52.5800	13533.3325
52.5900	12606.6875
52.6000	13330.9575
52.6100	13090.0250
52.6200	12449.8075
52.6300	12758.1325
52.6400	13708.3425
52.6500	13571.0175
52.6600	13550.4400
52.6700	13550.0000
52.6800	13517.5625
52.6900	13322.0900
52.7000	13511.1925
52.7100	12981.8575
52.7200	12626.4225
52.7300	13264.5850
52.7400	13315.7200
52.7500	13591.8900
52.7600	13551.4450
52.7700	13452.9125
52.7800	13158.8125
52.7900	12535.4325
52.8000	12743.0275
52.8100	12863.1525
52.8200	13416.1175
52.8300	13207.1475
52.8400	13086.9350
52.8500	12841.1150
52.8600	13010.9150
52.8700	12403.3625
52.8800	12544.6875
52.8900	13840.5050
52.9000	13802.6975
52.9100	13574.2775
52.9200	13518.3100
52.9300	13951.7675
52.9400	13467.2350
52.9500	13401.6800
52.9600	13770.3575
52.9700	13348.6775
52.9800	12528.6200
52.9900	12483.9100
53.0000	12965.9150
53.0100	13111.9900
53.0200	13389.9900
53.0300	13592.8850
53.0400	13085.7700
53.0500	13034.5350
53.0600	13707.9175
53.0700	13492.4725
53.0800	13499.3875
53.0900	13451.8525
53.1000	13385.8200
53.1100	14024.9800
53.1200	13504.7375
53.1300	12681.6800
53.1400	13098.8125
53.1500	12988.4675
53.1600	12710.9775
53.1700	13308.6425
53.1800	12852.9475
53.1900	12705.2625
53.2000	13180.1425
53.2100	12671.9750
53.2200	12442.0425
53.2300	12657.2325
53.2400	12586.7225
53.2500	12711.2100
53.2600	12892.4550
53.2700	13251.4875
53.2800	12803.4600
53.2900	13166.5825
53.3000	12688.4275
53.3100	12874.1550
53.3200	13362.0350
53.3300	13766.1975
53.3400	13416.5125
53.3500	13112.9950
53.3600	12972.4750
53.3700	12839.1725
53.3800	13104.1925
53.3900	13514.8875
53.4000	13182.9850
53.4100	12911.9325
53.4200	12502.0750
53.4300	12769.7675
53.4400	13165.1525
53.4500	12658.4625
53.4600	12744.6425
53.4700	13322.3025
53.4800	13175.1725
53.4900	12260.9700
53.5000	13090.3675
53.5100	13530.3725
53.5200	13010.1600
53.5300	13062.7025
53.5400	13495.1525
53.5500	13738.7900
53.5600	13432.7600
53.5700	13337.3750
53.5800	12952.8325
53.5900	12885.7825
53.6000	13247.8000
53.6100	13044.8725
53.6200	13160.0425
53.6300	13134.9975
53.6400	13481.6125
53.6500	13373.3850
53.6600	13398.3125
53.6700	12514.1225
53.6800	12941.1275
53.6900	12682.0600
53.7000	12808.9350
53.7100	13417.2100
53.7200	13055.0025
53.7300	13017.5375
53.7400	12921.9125
53.7500	12285.1300
53.7600	12644.6150
53.7700	12903.3775
53.7800	12963.9975
53.7900	13140.1700
53.8000	12818.8450
53.8100	12516.2225
53.8200	12452.7150
53.8300	12150.6025
53.8400	12290.8725
53.8500	12898.5075
53.8600	13122.2900
53.8700	12692.5425
53.8800	13217.5225
53.8900	13627.6400
53.9000	13209.5275
53.9100	13120.4250
53.9200	13100.9425
53.9300	13461.5550
53.9400	13263.3075
53.9500	13469.9725
53.9600	13373.3750
53.9700	13256.7325
53.9800	13454.1125
53.9900	13482.3650
54.0000	12839.9025
54.0100	12721.5525
54.0200	12763.7250
54.0300	12327.5650
54.0400	12503.8200
54.0500	12971.2325
54.0600	13156.7100
54.0700	12680.9825
54.0800	12884.9525
54.0900	13150.5575
54.1000	13636.3475
54.1100	13384.9250
54.1200	13366.6675
54.1300	13397.9575
54.1400	13493.8475
54.1500	12937.0500
54.1600	12743.6625
54.1700	12577.0325
54.1800	12629.1725
54.1900	13055.1450
54.2000	13083.3325
54.2100	12536.7975
54.2200	11906.7575
54.2300	12553.4175
54.2400	12927.6900
54.2500	12918.8000
54.2600	13135.0225
54.2700	13165.5925
54.2800	13182.2575
54.2900	13230.0900
54.3000	13139.8400
54.3100	12479.0300
54.3200	11825.9100
54.3300	12468.4725
54.3400	12812.4525
54.3500	13191.3050
54.3600	13138.8650
54.3700	12775.5275
54.3800	12718.8925
54.3900	12934.3600
54.4000	13074.3675
54.4100	13254.2975
54.4200	12769.4300
54.4300	12997.4300
54.4400	13109.8550
54.4500	13178.7775
54.4600	12748.6550
54.4700	12685.6250
54.4800	12590.2300
54.4900	12552.3075
54.5000	12906.7250
54.5100	13041.8775
54.5200	12538.4125
54.5300	12763.4850
54.5400	12488.9200
54.5500	12435.6825
54.5600	12727.6125
54.5700	13059.6950
54.5800	13315.5525
54.5900	13364.2875
54.6000	12902.4425
54.6100	13129.6650
54.6200	13010.7975
54.6300	13324.7325
54.6400	12948.0425
54.6500	13009.4050
54.6600	12893.0450
54.6700	12960.5800
54.6800	12750.4250
54.6900	12563.4675
54.7000	12241.2250
54.7100	12803.2050
54.7200	13374.6775
54.7300	12737.8275
54.7400	12451.9625
54.7500	11862.7500
54.7600	12263.7775
54.7700	12885.7375
54.7800	13472.7050
54.7900	13686.1450
54.8000	12852.8000
54.8100	12952.7350
54.8200	12766.5100
54.8300	12842.3600
54.8400	12819.2200
54.8500	12355.0800
54.8600	12224.3700
54.8700	12616.5275
54.8800	12603.8725
54.8900	12630.7450
54.9000	12986.8175
54.9100	13201.0525
54.9200	12556.1000
54.9300	12791.8125
54.9400	12386.7225
54.9500	12733.7925
54.9600	13380.5975
54.9700	12681.4375
54.9800	12248.4725
54.9900	12968.2250
55.0000	13018.0000
55.0100	13476.6000
55.0200	12918.8875
55.0300	12636.8025
55.0400	12999.6875
55.0500	12880.1600
55.0600	12453.1875
55.0700	12631.0150
55.0800	12757.1500
55.0900	12445.2850
55.1000	12783.8775
55.1100	13199.0925
55.1200	12866.2850
55.1300	12848.6225
55.1400	12895.8600
55.1500	13068.1200
55.1600	12640.2075
55.1700	13211.0725
55.1800	13236.1200
55.1900	13080.6325
55.2000	12914.0000
55.2100	12426.8375
55.2200	12810.6125
55.2300	13231.4150
55.2400	13770.0250
55.2500	13176.1700
55.2600	12796.4875
55.2700	12949.5850
55.2800	13012.3875
55.2900	12818.5900
55.3000	12601.9675
55.3100	12857.4725
55.3200	12609.2550
55.3300	12583.3325
55.3400	12111.5125
55.3500	11944.9325
55.3600	12435.3750
55.3700	12954.8450
55.3800	13440.9975
55.3900	12221.4450
55.4000	12510.4050
55.4100	12261.2600
55.4200	12430.8500
55.4300	13072.8025
55.4400	13361.1400
55.4500	12973.3725
55.4600	13115.5000
55.4700	13694.8900
55.4800	13082.3475
55.4900	12986.3250
55.5000	13408.0200
55.5100	12995.0750
55.5200	12737.7475
55.5300	12595.4050
55.5400	12992.5025
55.5500	12760.6125
55.5600	12854.5175
55.5700	12730.3650
55.5800	12837.7975
55.5900	12804.5850
55.6000	13011.8900
55.6100	12866.8850
55.6200	12895.3850
55.6300	13081.5025
55.6400	13387.3200
55.6500	12902.6250
55.6600	13227.8900
55.6700	13115.5425
55.6800	12268.9925
55.6900	12545.8775
55.7000	12719.2600
55.7100	12778.6325
55.7200	12964.4900
55.7300	13466.3175
55.7400	13486.4875
55.7500	12789.3375
55.7600	12912.7550
55.7700	13385.7500
55.7800	13192.0950
55.7900	12819.9600
55.8000	13325.8900
55.8100	12539.5325
55.8200	12555.4525
55.8300	12476.2975
55.8400	11969.7400
55.8500	13000.6425
55.8600	13071.5100
55.8700	13412.7925
55.8800	12848.1675
55.8900	12572.7350
55.9000	12474.8025
55.9100	12977.9050
55.9200	13078.4325
55.9300	13579.3275
55.9400	13528.1450
55.9500	13035.9025
55.9600	12863.1675
55.9700	13120.3175
55.9800	13074.9275
55.9900	13081.6775
56.0000	13248.4250
56.0100	12696.4675
56.0200	12498.3150
56.0300	12933.3050
56.0400	13253.2600
56.0500	13493.2350
56.0600	12797.1550
56.0700	12356.9850
56.0800	12316.6675
56.0900	12391.5700
56.1000	12744.4825
56.1100	13157.6950
56.1200	12870.6300
56.1300	13012.9525
56.1400	12719.0625
56.1500	12443.9375
56.1600	12805.6050
56.1700	12835.0450
56.1800	12773.5200
56.1900	12587.2675
56.2000	12207.9400
56.2100	13302.4075
56.2200	13164.3975
56.2300	12998.8925
56.2400	13177.4875
56.2500	12931.2275
56.2600	12825.3550
56.2700	12965.9250
56.2800	13013.1800
56.2900	12777.9500
56.3000	12839.5000
56.3100	12715.7750
56.3200	12580.7150
56.3300	12894.6375
56.3400	12948.2375
56.3500	12741.3750
56.3600	12388.8925
56.3700	12394.6875
56.3800	12742.5350
56.3900	12366.4175
56.4000	12763.2725
56.4100	13456.6725
56.4200	12714.8825
56.4300	12839.8350
56.4400	13164.1650
56.4500	12515.8875
56.4600	12909.1425
56.4700	12803.1400
56.4800	12471.2075
56.4900	12240.1500
56.5000	12365.2400
56.5100	12531.8775
56.5200	12193.5675
56.5300	12313.3325
56.5400	12778.6975
56.5500	12788.8050
56.5600	12813.0125
56.5700	13054.0525
56.5800	13098.1675
56.5900	13174.1550
56.6000	12812.6350
56.6100	12529.4675
56.6200	12099.8025
56.6300	12109.2775
56.6400	12976.0100
56.6500	12357.4775
56.6600	12666.5500
56.6700	12761.0900
56.6800	12959.1275
56.6900	12953.7300
56.7000	12550.4300
56.7100	12500.0000
56.7200	12973.3800
56.7300	12619.2050
56.7400	11975.1725
56.7500	12328.7500
56.7600	12161.6100
56.7700	12857.4925
56.7800	12831.7925
56.7900	12521.2050
56.8000	13295.6925
56.8100	13355.6975
56.8200	12715.1275
56.8300	12928.5650
56.8400	13453.7050
56.8500	13206.7925
56.8600	12547.0375
56.8700	12304.4150
56.8800	12593.0275
56.8900	12073.0400
56.9000	11970.5175
56.9100	12615.1775
56.9200	13171.5550
56.9300	12938.6675
56.9400	13017.8425
56.9500	12944.9675
56.9600	12491.5900
56.9700	12654.1625
56.9800	13139.6275
56.9900	12964.5375
57.0000	12506.6400
57.0100	12567.6850
57.0200	12965.7400
57.0300	12869.6150
57.0400	12747.0825
57.0500	12424.6425
57.0600	13147.5675
57.0700	13455.7150
57.0800	12998.5225
57.0900	12962.7100
57.1000	13172.2650
57.1100	13449.6100
57.1200	12925.4900
57.1300	12556.4525
57.1400	12854.1825
57.1500	13530.8875
57.1600	13249.9400
57.1700	12730.6775
57.1800	12505.3675
57.1900	12893.8350
57.2000	12788.7625
57.2100	12678.7350
57.2200	13355.3350
57.2300	12981.2075
57.2400	12345.4325
57.2500	12237.3775
57.2600	12409.0325
57.2700	12213.7500
57.2800	12446.7825
57.2900	12615.0350
57.3000	12852.7925
57.3100	12503.0075
57.3200	12230.6225
57.3300	12126.8875
57.3400	12672.2200
57.3500	13027.7250
57.3600	13548.9400
57.3700	12871.4725
57.3800	12722.8400
57.3900	13198.6725
57.4000	12916.1800
57.4100	12209.6275
57.4200	12160.4600
57.4300	12575.3400
57.4400	12677.1125
57.4500	12595.7925
57.4600	12204.0600
57.4700	12325.0175
57.4800	12627.0600
57.4900	12287.6025
57.5000	12466.5600
57.5100	12966.3700
57.5200	12727.3350
57.5300	13134.9625
57.5400	12544.5275
57.5500	12668.4500
57.5600	13005.7750
57.5700	12933.5350
57.5800	12989.4425
57.5900	12534.3125
57.6000	12175.6650
57.6100	12497.0200
57.6200	12957.2550
57.6300	13031.2100
57.6400	12844.3200
57.6500	12962.0350
57.6600	12663.5800
57.6700	12456.8175
57.6800	13145.2550
57.6900	12741.5775
57.7000	12986.1900
57.7100	12684.8250
57.7200	13257.6300
57.7300	12929.0400
57.7400	12736.0475
57.7500	12731.1775
57.7600	13038.0025
57.7700	12459.6000
57.7800	12772.7475
57.7900	12789.8325
57.8000	13116.7800
57.8100	13137.6775
57.8200	12886.9625
57.8300	13168.7775
57.8400	12289.4825
57.8500	12294.8475
57.8600	12968.3600
57.8700	12936.3500
57.8800	12945.6200
57.8900	12950.0000
57.9000	12877.6400
57.9100	12866.6675
57.9200	13242.7975
57.9300	12880.5425
57.9400	12700.9750
57.9500	12524.2850
57.9600	12442.1750
57.9700	12534.5100
57.9800	12593.3525
57.9900	13293.5350
58.0000	13327.7700
58.0100	12796.6975
58.0200	12586.6975
58.0300	12595.5425
58.0400	12542.2575
58.0500	12287.9650
58.0600	12148.9850
58.0700	12609.4675
58.0800	12654.4825
58.0900	12664.4225
58.1000	13056.0250
58.1100	13376.1925
58.1200	13027.4450
58.1300	12692.8175
58.1400	13168.7800
58.1500	12616.0450
58.1600	12430.2325
58.1700	12359.0550
58.1800	12292.3975
58.1900	12009.7725
58.2000	12326.5525
58.2100	12771.9425
58.2200	13034.8000
58.2300	12865.2350
58.2400	12833.3325
58.2500	12890.8650
58.2600	12971.9025
58.2700	12868.3100
58.2800	12389.9850
58.2900	12934.7050
58.3000	13378.2250
58.3100	13145.9725
58.3200	12769.5925
58.3300	12673.5775
58.3400	12982.5975
58.3500	13449.7175
58.3600	13100.3550
58.3700	12760.6250
58.3800	12802.7700
58.3900	12630.1400
58.4000	12585.6550
58.4100	12970.6000
58.4200	12689.1550
58.4300	12203.1850
58.4400	12434.3850
58.4500	12727.0000
58.4600	12465.7175
58.4700	12588.6075
58.4800	12917.5125
58.4900	12651.5475
58.5000	12528.3950
58.5100	12530.9850
58.5200	12662.1800
58.5300	12540.1950
58.5400	13117.7425
58.5500	13116.5050
58.5600	12799.5650
58.5700	12821.5200
58.5800	12690.3175
58.5900	12566.5725
58.6000	12521.4075
58.6100	12773.9650
58.6200	12730.9150
58.6300	12802.4025
58.6400	12902.3900
58.6500	12688.1125
58.6600	13121.3125
58.6700	13399.9175
58.6800	13005.0125
58.6900	12704.9325
58.7000	12538.2125
58.7100	12545.2075
58.7200	12778.2850
58.7300	12246.0525
58.7400	12064.4225
58.7500	12249.6475
58.7600	12753.8525
58.7700	12975.8900
58.7800	12828.9600
58.7900	12514.9800
58.8000	12822.8825
58.8100	13025.7950
58.8200	12993.0250
58.8300	13567.2325
58.8400	12983.1925
58.8500	12809.7200
58.8600	12700.3600
58.8700	12526.7825
58.8800	12926.8875
58.8900	13056.9075
58.9000	13052.4425
58.9100	13234.8925
58.9200	13039.1450
58.9300	12601.9050
58.9400	12533.3325
58.9500	12632.8250
58.9600	12920.0025
58.9700	12597.2525
58.9800	12533.3325
58.9900	12717.9800
59.0000	12863.6100
59.0100	12968.5275
59.0200	12798.7800
59.0300	12709.8900
59.0400	12586.4650
59.0500	12893.0250
59.0600	12950.0000
59.0700	13148.5875
59.0800	13325.1575
59.0900	12527.5550
59.1000	12354.9775
59.1100	12803.6125
59.1200	12642.3900
59.1300	12755.8775
59.1400	12570.8075
59.1500	12717.4925
59.1600	12381.7425
59.1700	12444.1200
59.1800	12693.2125
59.1900	12945.6850
59.2000	12388.8450
59.2100	12637.1375
59.2200	12204.7550
59.2300	12611.8300
59.2400	12827.3075
59.2500	12538.8550
59.2600	12554.0375
59.2700	13047.3675
59.2800	12652.7100
59.2900	12609.0675
59.3000	13068.8700
59.3100	13701.0350
59.3200	13559.8450
59.3300	12725.6950
59.3400	12004.3250
59.3500	12309.4775
59.3600	12566.8625
59.3700	12981.1125
59.3800	12937.0950
59.3900	12225.2425
59.4000	12509.1450
59.4100	12371.7400
59.4200	12587.2025
59.4300	12802.5525
59.4400	12565.4475
59.4500	12756.3150
59.4600	13025.5150
59.4700	13052.5750
59.4800	12725.9250
59.4900	12469.4350
59.5000	12602.3600
59.5100	12858.6675
59.5200	12942.2425
59.5300	12851.4475
59.5400	13213.4000
59.5500	12959.6250
59.5600	12998.5050
59.5700	13016.6675
59.5800	12650.9100
59.5900	12456.7450
59.6000	12517.7125
59.6100	12350.5425
59.6200	12654.0700
59.6300	13222.6925
59.6400	13190.1800
59.6500	12632.7000
59.6600	12463.0850
59.6700	12801.1825
59.6800	12993.0725
59.6900	12609.4250
59.7000	12701.8200
59.7100	13182.5600
59.7200	13224.5575
59.7300	12585.1450
59.7400	12691.1725
59.7500	12887.6575
59.7600	12650.1525
59.7700	12263.4025
59.7800	12340.2275
59.7900	12198.4225
59.8000	12390.9575
59.8100	12601.5250
59.8200	12955.6500
59.8300	12596.3200
59.8400	12488.6475
59.8500	12581.3825
59.8600	12824.0775
59.8700	12586.6125
59.8800	12799.3425
59.8900	13087.9700
59.9000	12965.3800
59.9100	12947.3275
59.9200	12894.0325
59.9300	13121.1525
59.9400	12649.1425
59.9500	12326.2400
59.9600	12465.1100
59.9700	13394.7550
59.9800	13091.4025
59.9900	12371.0725
60.0000	12473.5825
60.0100	12656.3850
60.0200	12655.3950
60.0300	11993.5350
60.0400	12690.6100
60.0500	12640.5550
60.0600	12767.5300
60.0700	12744.1650
60.0800	12747.2900
60.0900	12568.5950
60.1000	12812.3725
60.1100	13159.6125
60.1200	12909.8175
60.1300	12459.5275
60.1400	12425.1625
60.1500	12503.0400
60.1600	12837.2625
60.1700	13081.1775
60.1800	13548.6375
60.1900	12867.0525
60.2000	12410.2025
60.2100	12391.7850
60.2200	12998.8125
60.2300	13116.6675
60.2400	12726.8650
60.2500	12162.8225
60.2600	12136.2525
60.2700	12609.1950
60.2800	13298.2525
60.2900	12860.2400
60.3000	12791.7250
60.3100	13453.5975
60.3200	12457.0950
60.3300	12427.9625
60.3400	12814.1625
60.3500	12827.7425
60.3600	12010.7250
60.3700	12169.5475
60.3800	12497.2675
60.3900	12619.4450
60.4000	12786.0900
60.4100	13066.5925
60.4200	12894.5450
60.4300	12850.0000
60.4400	12877.7575
60.4500	12800.0775
60.4600	12630.7200
60.4700	13002.2850
60.4800	12708.8500
60.4900	13201.9050
60.5000	13164.1475
60.5100	12759.0250
60.5200	13029.8625
60.5300	12808.9600
60.5400	12140.2975
60.5500	12667.8400
60.5600	13187.8725
60.5700	13114.3125
60.5800	13249.5125
60.5900	13200.2550
60.6000	12740.3225
60.6100	12857.6300
60.6200	12720.0825
60.6300	12752.5225
60.6400	13250.9125
60.6500	13280.8325
60.6600	12990.0400
60.6700	12822.7000
60.6800	13311.6000
60.6900	12628.6450
60.7000	12591.0725
60.7100	12810.1575
60.7200	13292.1950
60.7300	12789.2250
60.7400	12680.4800
60.7500	12407.0900
60.7600	12626.2025
60.7700	12683.3325
60.7800	12641.9150
60.7900	12633.3325
60.8000	12909.3650
60.8100	12994.2650
60.8200	12848.2275
60.8300	13078.7775
60.8400	13009.1950
60.8500	12679.9300
60.8600	12313.3100
60.8700	12539.5250
60.8800	12889.4800
60.8900	13184.3050
60.9000	13123.0900
60.9100	13086.2225
60.9200	12587.3850
60.9300	12180.3000
60.9400	12419.6550
60.9500	12662.3450
60.9600	12934.0550
60.9700	12886.9725
60.9800	12536.3375
60.9900	12356.5725
61.0000	12594.7650
61.0100	12870.1200
61.0200	12751.6025
61.0300	12785.4325
61.0400	12992.5175
61.0500	12703.3550
61.0600	12550.8525
61.0700	12959.4250
61.0800	13022.5150
61.0900	12893.0000
61.1000	12715.5425
61.1100	13452.5800
61.1200	13177.1625
61.1300	12753.7550
61.1400	12243.9650
61.1500	12397.1075
61.1600	12010.7650
61.1700	12671.4900
61.1800	13162.6600
61.1900	13301.9325
61.2000	13783.0725
61.2100	12799.7925
61.2200	12388.3900
61.2300	13008.1550
61.2400	13259.6750
61.2500	13351.8700
61.2600	12955.5075
61.2700	12948.8850
61.2800	12925.5625
61.2900	12779.6750
61.3000	12297.9975
61.3100	12597.1550
61.3200	12724.4125
61.3300	13376.8025
61.3400	12969.1175
61.3500	12795.2525
61.3600	12947.5475
61.3700	12613.9050
61.3800	12601.7350
61.3900	12534.5975
61.4000	12639.7525
61.4100	12953.8250
61.4200	12756.8950
61.4300	13164.7850
61.4400	13211.9950
61.4500	12530.3650
61.4600	12219.3650
61.4700	12347.2750
61.4800	12752.1475
61.4900	12901.6225
61.5000	13189.7800
61.5100	13482.1125
61.5200	12987.2700
61.5300	12839.3675
61.5400	12533.0900
61.5500	12371.1500
61.5600	12677.4400
61.5700	12845.4900
61.5800	13221.2850
61.5900	13218.1775
61.6000	13050.0150
61.6100	12825.8050
61.6200	12728.8100
61.6300	12771.1825
61.6400	13246.6475
61.6500	12995.7550
61.6600	12794.0625
61.6700	13134.4250
61.6800	13434.5650
61.6900	12843.3525
61.7000	12754.4575
61.7100	13025.3050
61.7200	12960.8400
61.7300	12674.7725
61.7400	12630.2725
61.7500	13027.8575
61.7600	12749.4050
61.7700	12843.4700
61.7800	13155.2975
61.7900	12999.1300
61.8000	12705.3075
61.8100	12242.2400
61.8200	12326.6700
61.8300	12448.1950
61.8400	12697.6275
61.8500	12274.5650
61.8600	12261.7400
61.8700	12622.8275
61.8800	12767.8875
61.8900	12701.8800
61.9000	12696.9075
61.9100	12591.4275
61.9200	12430.9725
61.9300	12440.7025
61.9400	12450.0000
61.9500	12585.6350
61.9600	12847.2100
61.9700	12411.8650
61.9800	12435.5725
61.9900	12466.6675
62.0000	12764.8375
62.0100	13253.4200
62.0200	12537.0525
62.0300	12783.5075
62.0400	13005.2400
62.0500	12952.0750
62.0600	12811.4650
62.0700	12932.2625
62.0800	12736.5400
62.0900	12372.0325
62.1000	12489.4600
62.1100	12465.6800
62.1200	12409.4150
62.1300	12454.1075
62.1400	12331.4200
62.1500	12462.2725
62.1600	12621.6850
62.1700	12960.9275
62.1800	13114.4325
62.1900	12957.6450
62.2000	12849.1050
62.2100	12279.4050
62.2200	12487.7100
62.2300	12998.8700
62.2400	13167.5225
62.2500	12643.2425
62.2600	12800.1725
62.2700	12988.1500
62.2800	12584.7875
62.2900	12820.6875
62.3000	13142.8575
62.3100	13200.0000
62.3200	13280.9275
62.3300	13043.7650
62.3400	13279.9825
62.3500	13066.8775
62.3600	13525.7175
62.3700	13393.9200
62.3800	12538.2550
62.3900	12606.0025
62.4000	12410.7025
62.4100	12188.3625
62.4200	12594.4350
62.4300	12780.7950
62.4400	12826.9275
62.4500	12900.6425
62.4600	13064.7225
62.4700	13086.5425
62.4800	12894.9550
62.4900	12648.1975
62.5000	12640.3550
62.5100	12623.1000
62.5200	12804.9300
62.5300	12876.8900
62.5400	12816.1175
62.5500	12463.9650
62.5600	12880.5900
62.5700	13282.1825
62.5800	13014.1175
62.5900	12449.7350
62.6000	12991.4625
62.6100	13123.1425
62.6200	12485.5900
62.6300	12803.2125
62.6400	13024.0525
62.6500	12821.8425
62.6600	13249.7525
62.6700	12749.4825
62.6800	12398.7750
62.6900	13127.9525
62.7000	13558.0625
62.7100	12691.4525
62.7200	12346.0050
62.7300	12557.9550
62.7400	12857.9175
62.7500	12608.4475
62.7600	12452.9400
62.7700	12942.4100
62.7800	12972.9025
62.7900	12655.3600
62.8000	12275.3475
62.8100	11865.2850
62.8200	12412.5025
62.8300	13102.0500
62.8400	12417.0000
62.8500	12551.1800
62.8600	12566.4400
62.8700	12349.3525
62.8800	12513.9900
62.8900	12673.6450
62.9000	12833.7025
62.9100	12679.5100
62.9200	12860.5600
62.9300	12849.8450
62.9400	12833.3325
62.9500	12779.8925
62.9600	13020.4725
62.9700	13043.2650
62.9800	13019.9800
62.9900	12469.2325
63.0000	13040.8850
63.0100	13270.0575
63.0200	13083.1450
63.0300	12966.6125
63.0400	12963.3425
63.0500	13180.1050
63.0600	12659.8075
63.0700	12716.7050
63.0800	13100.0100
63.0900	12636.7325
63.1000	12779.9250
63.1100	13049.9150
63.1200	12953.4175
63.1300	13063.2275
63.1400	12886.8550
63.1500	12633.5400
63.1600	12396.8875
63.1700	12270.1075
63.1800	12276.6275
63.1900	12589.4950
63.2000	12626.7375
63.2100	12802.9700
63.2200	12916.5275
63.2300	12906.7275
63.2400	12793.5900
63.2500	12168.2050
63.2600	12123.0425
63.2700	12376.0175
63.2800	12619.4350
63.2900	12600.2125
63.3000	12689.6450
63.3100	12729.9525
63.3200	12600.4850
63.3300	12659.6475
63.3400	12829.4225
63.3500	12587.8125
63.3600	12702.5400
63.3700	13068.5925
63.3800	12831.4550
63.3900	12537.6700
63.4000	13067.1500
63.4100	13349.3325
63.4200	13250.6875
63.4300	12964.6800
63.4400	12833.6975
63.4500	12670.8250
63.4600	12606.8200
63.4700	12189.1175
63.4800	12507.4050
63.4900	12775.6700
63.5000	12631.1925
63.5100	12291.9200
63.5200	12587.5000
63.5300	13133.5600
63.5400	12746.8825
63.5500	12696.0950
63.5600	12981.3825
63.5700	12904.4275
63.5800	12747.5800
63.5900	12994.4900
63.6000	13370.9025
63.6100	13000.3300
63.6200	12433.7325
63.6300	12409.2175
63.6400	12327.5775
63.6500	12617.2175
63.6600	13096.4600
63.6700	12909.3075
63.6800	12820.1225
63.6900	12935.5500
63.7000	12702.5250
63.7100	12857.8200
63.7200	13048.6975
63.7300	13070.1325
63.7400	12631.1025
63.7500	12727.8150
63.7600	12611.8000
63.7700	12038.9575
63.7800	12599.1050
63.7900	13165.8025
63.8000	13161.1750
63.8100	12777.3525
63.8200	12709.6975
63.8300	12795.7500
63.8400	12790.3100
63.8500	12440.7500
63.8600	12995.5350
63.8700	12718.8150
63.8800	12639.5100
63.8900	12781.6800
63.9000	12829.8325
63.9100	12951.8075
63.9200	12601.6425
63.9300	12671.0750
63.9400	12953.5050
63.9500	12898.2675
63.9600	12379.9875
63.9700	12105.3350
63.9800	12750.4325
63.9900	12354.8525
64.0000	12476.0500
64.0100	12760.2900
64.0200	13197.7575
64.0300	12932.1075
64.0400	12531.1850
64.0500	12830.9100
64.0600	12802.0050
64.0700	12832.3200
64.0800	12574.3000
64.0900	12920.0500
64.1000	13361.4450
64.1100	13292.5325
64.1200	12252.8575
64.1300	12048.9250
64.1400	12420.8025
64.1500	12700.2625
64.1600	12618.8800
64.1700	12766.8725
64.1800	13078.8225
64.1900	13320.3750
64.2000	13432.1850
64.2100	13240.3750
64.2200	12921.3450
64.2300	13203.6300
64.2400	13077.3800
64.2500	13278.5300
64.2600	13219.0900
64.2700	12384.9025
64.2800	12336.7975
64.2900	12762.7925
64.3000	13193.7350
64.3100	12747.0275
64.3200	12443.0575
64.3300	12700.7575
64.3400	13005.5975
64.3500	13524.1950
64.3600	12800.4400
64.3700	12409.8500
64.3800	12667.1825
64.3900	12371.1475
64.4000	12136.0500
64.4100	12256.7150
64.4200	12273.8850
64.4300	12997.7725
64.4400	13069.4675
64.4500	12263.3100
64.4600	12141.3450
64.4700	12375.4200
64.4800	12315.9300
64.4900	12361.5900
64.5000	13022.3275
64.5100	13043.5375
64.5200	13091.2550
64.5300	12699.5675
64.5400	13234.9450
64.5500	13494.8475
64.5600	13555.7500
64.5700	13136.8125
64.5800	12691.0725
64.5900	12899.4975
64.6000	12996.3525
64.6100	13104.1400
64.6200	12951.1200
64.6300	12860.9600
64.6400	12537.7350
64.6500	12502.0350
64.6600	12815.8225
64.6700	12704.9300
64.6800	13001.0675
64.6900	12943.9950
64.7000	12445.0600
64.7100	11874.7975
64.7200	12724.5525
64.7300	12649.2200
64.7400	12900.7225
64.7500	12701.2850
64.7600	12668.6075
64.7700	12748.2500
64.7800	13233.9900
64.7900	13094.1050
64.8000	12770.1050
64.8100	12816.7725
64.8200	13200.2625
64.8300	12897.9150
64.8400	12096.0100
64.8500	12120.4250
64.8600	12779.6800
64.8700	12677.8000
64.8800	12820.3175
64.8900	12663.0525
64.9000	12820.2425
64.9100	12766.7525
64.9200	12927.6000
64.9300	12789.0975
64.9400	12811.0150
64.9500	12367.3225
64.9600	12595.7250
64.9700	12842.3450
64.9800	13142.0975
64.9900	13307.2200
65.0000	13126.3900
65.0100	12678.7125
65.0200	12489.0900
65.0300	12983.7650
65.0400	12758.5000
65.0500	12494.9225
65.0600	12540.4475
65.0700	12592.5050
65.0800	12871.2475
65.0900	12536.7375
65.1000	12068.0350
65.1100	11979.5775
65.1200	12306.0300
65.1300	12696.8325
65.1400	12783.3325
65.1500	12963.9525
65.1600	13003.7675
65.1700	13051.5875
65.1800	12963.5075
65.1900	12868.8700
65.2000	13236.7150
65.2100	13208.2300
65.2200	12535.2475
65.2300	12465.9550
65.2400	12847.8075
65.2500	13194.7100
65.2600	13202.2800
65.2700	12745.5775
65.2800	12513.6825
65.2900	12753.6200
65.3000	12884.8075
65.3100	12475.4100
65.3200	12491.5050
65.3300	13047.8125
65.3400	13174.2800
65.3500	12858.0850
65.3600	13010.9175
65.3700	12607.7675
65.3800	12582.3250
65.3900	12552.4225
65.4000	12867.3425
65.4100	12568.4925
65.4200	12989.3675
65.4300	13406.7975
65.4400	12725.9125
65.4500	12525.6700
65.4600	12738.6650
65.4700	12723.0150
65.4800	12379.2800
65.4900	12616.8250
65.5000	13165.5175
65.5100	13082.0250
65.5200	13080.7650
65.5300	12792.3750
65.5400	12764.0775
65.5500	12860.2125
65.5600	12985.8200
65.5700	13247.2250
65.5800	13214.2150
65.5900	13221.7450
65.6000	13066.9075
65.6100	13515.8575
65.6200	13333.9300
65.6300	13246.1275
65.6400	13365.1375
65.6500	12862.7850
65.6600	12431.4400
65.6700	12874.2400
65.6800	13225.0950
65.6900	12861.5325
65.7000	12784.4525
65.7100	12914.9950
65.7200	12962.7750
65.7300	12992.2125
65.7400	12808.4425
65.7500	12813.8425
65.7600	12999.2925
65.7700	13305.2750
65.7800	13345.0500
65.7900	12899.5200
65.8000	12371.2000
65.8100	12670.9050
65.8200	12226.1400
65.8300	12164.7525
65.8400	12990.3700
65.8500	13539.2275
65.8600	13136.3425
65.8700	12932.3700
65.8800	13362.5250
65.8900	13054.2225
65.9000	12127.1450
65.9100	12176.1675
65.9200	12559.4500
65.9300	12535.4525
65.9400	12563.6250
65.9500	12965.0175
65.9600	13083.3325
65.9700	12854.4050
65.9800	12630.7425
65.9900	13206.3000
66.0000	13247.4650
66.0100	13530.4350
66.0200	13328.3725
66.0300	13131.6975
66.0400	12884.0650
66.0500	12905.5650
66.0600	12831.7525
66.0700	12698.4375
66.0800	12907.8325
66.0900	12919.8800
66.1000	12798.4950
66.1100	12652.4925
66.1200	13073.2775
66.1300	13787.3250
66.1400	13687.7300
66.1500	13118.2875
66.1600	12953.9925
66.1700	12620.5275
66.1800	12757.3900
66.1900	12757.3300
66.2000	13303.2600
66.2100	13432.6825
66.2200	12935.5725
66.2300	12416.2500
66.2400	12768.2600
66.2500	13030.5475
66.2600	13091.9675
66.2700	13239.1350
66.2800	12979.8225
66.2900	12845.4025
66.3000	12593.1425
66.3100	12112.2100
66.3200	12691.0000
66.3300	13093.5500
66.3400	12884.7250
66.3500	12484.2550
66.3600	12522.2350
66.3700	12970.6700
66.3800	12784.4300
66.3900	12658.0925
66.4000	12713.0900
66.4100	12544.0975
66.4200	12760.8250
66.4300	13026.5525
66.4400	12616.8175
66.4500	12567.5150
66.4600	12915.0950
66.4700	13230.8900
66.4800	13388.1925
66.4900	13026.1700
66.5000	12975.5650
66.5100	13000.0000
66.5200	13327.3275
66.5300	13169.0050
66.5400	12680.6225
66.5500	12688.4050
66.5600	12884.2925
66.5700	12895.6000
66.5800	12669.5550
66.5900	12562.2825
66.6000	12449.4375
66.6100	12818.8400
66.6200	13678.8000
66.6300	13376.4525
66.6400	12911.1050
66.6500	12917.1325
66.6600	12598.4350
66.6700	12809.7225
66.6800	12841.3600
66.6900	12917.0550
66.7000	12561.0675
66.7100	12320.4400
66.7200	12734.8200
66.7300	12808.1000
66.7400	12306.9475
66.7500	12563.6225
66.7600	12950.6325
66.7700	12732.6325
66.7800	13109.3500
66.7900	13003.6575
66.8000	12803.9700
66.8100	12829.2625
66.8200	12662.2450
66.8300	13100.5800
66.8400	12528.4550
66.8500	12896.3050
66.8600	13062.4775
66.8700	12999.9800
66.8800	13045.8450
66.8900	12954.1675
66.9000	12891.6725
66.9100	12620.9425
66.9200	12883.1200
66.9300	12862.6100
66.9400	12392.0925
66.9500	12537.1550
66.9600	12658.2975
66.9700	12591.7875
66.9800	12678.9650
66.9900	12916.2675
67.0000	12771.3000
67.0100	13011.7525
67.0200	12792.5100
67.0300	12608.5425
67.0400	12782.7350
67.0500	12899.8400
67.0600	12779.6325
67.0700	12820.5200
67.0800	12737.9275
67.0900	12612.8500
67.1000	12944.3150
67.1100	12917.3250
67.1200	12344.0775
67.1300	12776.2325
67.1400	13393.7725
67.1500	13210.0225
67.1600	13025.4050
67.1700	12651.9600
67.1800	12694.8900
67.1900	13060.6250
67.2000	13054.8650
67.2100	13339.5850
67.2200	13226.4875
67.2300	12640.9900
67.2400	12479.0800
67.2500	12942.4950
67.2600	12963.5200
67.2700	13152.3550
67.2800	13072.1050
67.2900	12731.4750
67.3000	13005.2450
67.3100	13406.0125
67.3200	13747.8400
67.3300	13052.8000
67.3400	11978.1875
67.3500	12343.9825
67.3600	12925.7375
67.3700	13074.7575
67.3800	12872.9300
67.3900	12639.1375
67.4000	13028.7050
67.4100	13072.0125
67.4200	12674.7100
67.4300	12525.2725
67.4400	13258.3375
67.4500	13059.4000
67.4600	12405.7600
67.4700	12739.8225
67.4800	13040.1750
67.4900	13305.6025
67.5000	13050.0025
67.5100	12846.9325
67.5200	12977.0925
67.5300	13070.3475
67.5400	12910.6400
67.5500	12886.9975
67.5600	12690.3900
67.5700	12468.7375
67.5800	12330.3925
67.5900	12041.2350
67.6000	12282.6275
67.6100	12412.3175
67.6200	12576.7525
67.6300	12978.0600
67.6400	12472.2375
67.6500	12102.3225
67.6600	12505.2400
67.6700	12875.7875
67.6800	13048.3875
67.6900	13009.5575
67.7000	13106.2650
67.7100	12916.4775
67.7200	12661.3025
67.7300	13103.6975
67.7400	13651.8125
67.7500	13820.1725
67.7600	13403.6250
67.7700	13114.9775
67.7800	12980.7625
67.7900	12729.1525
67.8000	12294.2650
67.8100	12546.8525
67.8200	12867.2525
67.8300	12945.5925
67.8400	13146.0950
67.8500	13265.6800
67.8600	12842.3100
67.8700	12818.0600
67.8800	12989.1200
67.8900	12910.9075
67.9000	12621.8675
67.9100	12692.4175
67.9200	12603.1850
67.9300	12488.8400
67.9400	12466.6675
67.9500	13188.0250
67.9600	13303.3150
67.9700	13115.5700
67.9800	12822.3000
67.9900	12513.4525
68.0000	12872.9950
68.0100	13375.2175
68.0200	13280.2675
68.0300	13224.4100
68.0400	13001.4975
68.0500	12977.6625
68.0600	13353.6975
68.0700	13178.4900
68.0800	13152.0050
68.0900	13024.8850
68.1000	13125.0775
68.1100	13171.1500
68.1200	13227.5675
68.1300	12543.7175
68.1400	12672.9175
68.1500	12938.3850
68.1600	13007.6725
68.1700	12870.6725
68.1800	13072.1000
68.1900	13373.4000
68.2000	13000.1550
68.2100	12930.5750
68.2200	12820.8375
68.2300	12705.9175
68.2400	12598.3050
68.2500	12955.2775
68.2600	13197.1300
68.2700	13002.7025
68.2800	12965.2100
68.2900	12886.2700
68.3000	12850.0000
68.3100	13468.4925
68.3200	13190.7700
68.3300	13072.7300
68.3400	12809.1475
68.3500	13111.9475
68.3600	13133.4200
68.3700	12732.1300
68.3800	13096.4125
68.3900	13247.0200
68.4000	13172.8225
68.4100	13029.0075
68.4200	12874.4675
68.4300	13099.3900
68.4400	13260.4525
68.4500	13005.3125
68.4600	13057.1050
68.4700	12959.5975
68.4800	12706.7300
68.4900	12174.4275
68.5000	12784.7850
68.5100	13155.7575
68.5200	12543.7350
68.5300	12384.4550
68.5400	12706.1575
68.5500	12684.0150
68.5600	12560.9950
68.5700	12798.5125
68.5800	12731.2900
68.5900	12570.2850
68.6000	12509.2425
68.6100	12897.3875
68.6200	13700.1150
68.6300	13950.0000
68.6400	13264.0975
68.6500	13288.7325
68.6600	13532.3025
68.6700	12825.7775
68.6800	12377.0500
68.6900	12665.2150
68.7000	13112.4150
68.7100	13329.4375
68.7200	12946.3125
68.7300	12651.2550
68.7400	13080.1725
68.7500	13470.6900
68.7600	13118.0550
68.7700	12890.0225
68.7800	12746.7400
68.7900	12448.2175
68.8000	12373.9725
68.8100	12515.1550
68.8200	12758.3600
68.8300	12881.2450
68.8400	12696.4275
68.8500	12305.3950
68.8600	12458.6200
68.8700	12782.0550
68.8800	12866.6675
68.8900	12699.2250
68.9000	12944.2200
68.9100	12887.3550
68.9200	13043.7400
68.9300	12571.7675
68.9400	12409.7275
68.9500	12552.7550
68.9600	12576.1225
68.9700	12841.2025
68.9800	13009.6675
68.9900	13212.2875
69.0000	12937.4425
69.0100	12609.2100
69.0200	12700.2325
69.0300	13016.9500
69.0400	12997.5150
69.0500	12687.9300
69.0600	12666.6975
69.0700	12771.4375
69.0800	13061.8700
69.0900	13630.7725
69.1000	13626.3125
69.1100	13098.0225
69.1200	12785.8650
69.1300	12566.9000
69.1400	12856.5500
69.1500	13035.6450
69.1600	12598.6025
69.1700	12392.9150
69.1800	12858.2450
69.1900	12919.4325
69.2000	12653.0675
69.2100	12614.1200
69.2200	12668.9150
69.2300	12790.0500
69.2400	13224.5300
69.2500	13430.7375
69.2600	13035.3100
69.2700	12795.5950
69.2800	12908.7725
69.2900	12718.0475
69.3000	12462.8000
69.3100	12601.1575
69.3200	12470.3975
69.3300	12383.3325
69.3400	12395.1575
69.3500	12352.7175
69.3600	12463.3250
69.3700	12611.1800
69.3800	12520.0775
69.3900	13045.2575
69.4000	13401.3825
69.4100	13202.1625
69.4200	12982.0125
69.4300	12956.9250
69.4400	12624.6875
69.4500	12884.1675
69.4600	12837.8500
69.4700	12655.7350
69.4800	12769.8050
69.4900	12597.8000
69.5000	12947.3950
69.5100	12992.0875
69.5200	12768.5925
69.5300	12770.5850
69.5400	12764.7175
69.5500	12855.8200
69.5600	12711.9250
69.5700	13091.6400
69.5800	13224.5925
69.5900	13176.5100
69.6000	13037.5050
69.6100	13171.1550
69.6200	12839.2525
69.6300	12537.6100
69.6400	12788.2950
69.6500	13362.2575
69.6600	13327.2650
69.6700	12870.0225
69.6800	12857.2650
69.6900	12986.9475
69.7000	13110.3475
69.7100	12670.0150
69.7200	12291.1100
69.7300	13070.8075
69.7400	13632.1875
69.7500	13342.4525
69.7600	12972.8950
69.7700	12567.7650
69.7800	13111.0350
69.7900	13154.6925
69.8000	13365.3100
69.8100	13371.5775
69.8200	13398.3675
69.8300	13048.2750
69.8400	12999.9850
69.8500	12793.4350
69.8600	12683.3325
69.8700	12834.8550
69.8800	12818.4350
69.8900	12433.8625
69.9000	12120.2925
69.9100	12667.0575
69.9200	13201.0375
69.9300	13235.2150
69.9400	13223.2650
69.9500	13210.0750
69.9600	12851.2100
69.9700	12990.5775
69.9800	13209.6250
69.9900	12599.4700
70.0000	12874.1075
70.0100	13035.3950
70.0200	13197.3150
70.0300	13074.4700
70.0400	12994.9325
70.0500	13208.7475
70.0600	12755.0925
70.0700	12470.3050
70.0800	12681.7450
70.0900	12980.2600
70.1000	12997.1825
70.1100	13012.9775
70.1200	12940.7400
70.1300	12980.9950
70.1400	12623.3700
70.1500	12611.9000
70.1600	13215.1400
70.1700	13554.0200
70.1800	13392.0200
70.1900	13427.0625
70.2000	13437.1425
70.2100	13393.5775
70.2200	12910.1425
70.2300	13173.0550
70.2400	13510.2150
70.2500	13255.3200
70.2600	13208.8900
70.2700	13157.8025
70.2800	13116.6675
70.2900	13116.6675
70.3000	12909.4000
70.3100	12643.9950
70.3200	12566.6675
70.3300	12486.1325
70.3400	12519.0100
70.3500	12756.9675
70.3600	12941.9600
70.3700	12914.3825
70.3800	12848.8675
70.3900	12833.3325
70.4000	13143.3375
70.4100	13191.5075
70.4200	13104.1000
70.4300	12750.6550
70.4400	13093.1375
70.4500	13179.0875
70.4600	13185.4375
70.4700	13067.7075
70.4800	13080.1850
70.4900	12956.3425
70.5000	12723.0575
70.5100	12604.2200
70.5200	12812.1650
70.5300	12733.6550
70.5400	12535.6500
70.5500	12677.6700
70.5600	13063.8025
70.5700	12834.4025
70.5800	12940.7850
70.5900	13078.0850
70.6000	13254.5575
70.6100	12899.6950
70.6200	12437.6125
70.6300	12636.0025
70.6400	12623.7125
70.6500	12983.1275
70.6600	13126.3600
70.6700	12826.6075
70.6800	12221.7025
70.6900	12785.5425
70.7000	12945.1375
70.7100	13111.6925
70.7200	13221.9575
70.7300	12670.8475
70.7400	12598.5525
70.7500	13103.8200
70.7600	13265.9175
70.7700	13136.4225
70.7800	12856.2450
70.7900	12977.0200
70.8000	13276.2425
70.8100	13321.2900
70.8200	12869.0450
70.8300	12836.7300
70.8400	13064.0100
70.8500	13223.9800
70.8600	13323.3025
70.8700	13497.2125
70.8800	13442.1400
70.8900	13236.2075
70.9000	13585.2800
70.9100	13477.9500
70.9200	12756.6700
70.9300	12641.5850
70.9400	13112.1800
70.9500	13424.2675
70.9600	13088.0575
70.9700	12979.0325
70.9800	13422.9925
70.9900	13300.7300
71.0000	13240.2400
71.0100	13249.5025
71.0200	13030.4150
71.0300	12944.6025
71.0400	12950.0000
71.0500	13242.8425
71.0600	13248.2175
71.0700	13014.4875
71.0800	12663.2625
71.0900	13129.5600
71.1000	13169.2500
71.1100	13387.2825
71.1200	13313.9725
71.1300	13020.2250
71.1400	12899.6350
71.1500	13040.5425
71.1600	13161.5700
71.1700	13261.8900
71.1800	13501.9425
71.1900	13140.1600
71.2000	12513.0275
71.2100	12596.8875
71.2200	12957.4425
71.2300	13178.6875
71.2400	13278.1275
71.2500	13322.3900
71.2600	13713.8550
71.2700	13396.5200
71.2800	13194.7400
71.2900	13350.8475
71.3000	13103.6750
71.3100	13117.6225
71.3200	13412.2575
71.3300	13237.4650
71.3400	12899.0375
71.3500	13023.2250
71.3600	13401.1225
71.3700	13388.3250
71.3800	13194.0050
71.3900	12999.5625
71.4000	13145.0725
71.4100	13417.1125
71.4200	13277.2525
71.4300	12888.3150
71.4400	13250.8775
71.4500	13622.4000
71.4600	13605.4675
71.4700	13544.4250
71.4800	13933.5450
71.4900	13633.2200
71.5000	13094.4675
71.5100	13083.2825
71.5200	12861.3125
71.5300	13105.1675
71.5400	13222.3250
71.5500	12706.3275
71.5600	12932.4375
71.5700	13211.0125
71.5800	13432.8275
71.5900	13389.3000
71.6000	13460.6575
71.6100	13555.4800
71.6200	13312.0700
71.6300	13305.0600
71.6400	13012.6650
71.6500	13032.3975
71.6600	13166.5000
71.6700	12962.2850
71.6800	12916.2950
71.6900	13159.8650
71.7000	13178.3300
71.7100	13254.7600
71.7200	13835.3275
71.7300	14055.8725
71.7400	14088.4750
71.7500	14050.5150
71.7600	13575.7950
71.7700	13460.1825
71.7800	13626.8175
71.7900	13749.4025
71.8000	13508.1300
71.8100	13575.7575
71.8200	13672.3325
71.8300	13490.7000
71.8400	13608.8975
71.8500	13672.7025
71.8600	13682.9625
71.8700	13414.4050
71.8800	13003.1225
71.8900	13250.8825
71.9000	13526.8200
71.9100	13456.9575
71.9200	13334.1950
71.9300	13453.4975
71.9400	13489.4900
71.9500	13313.2650
71.9600	13134.7475
71.9700	13072.3825
71.9800	13318.4500
71.9900	13657.9300
72.0000	13591.6225
72.0100	13335.9450
72.0200	13381.2025
72.0300	13756.0450
72.0400	13643.4975
72.0500	13139.5275
72.0600	13146.5600
72.0700	13293.6675
72.0800	13174.7950
72.0900	13078.1800
72.1000	13273.8900
72.1100	13067.1425
72.1200	13117.9950
72.1300	12950.0275
72.1400	13301.0775
72.1500	13697.3425
72.1600	13570.7150
72.1700	13118.4150
72.1800	13259.7175
72.1900	13574.7225
72.2000	13476.0350
72.2100	13318.1175
72.2200	13229.0025
72.2300	13297.7625
72.2400	13263.1250
72.2500	13118.9625
72.2600	12925.5825
72.2700	13240.5700
72.2800	13558.4575
72.2900	13638.3525
72.3000	13606.6425
72.3100	13377.4550
72.3200	13234.1700
72.3300	13454.9050
72.3400	13821.4975
72.3500	13950.0000
72.3600	13798.5350
72.3700	13175.8875
72.3800	13294.1975
72.3900	13754.4625
72.4000	13926.5550
72.4100	13885.1875
72.4200	13666.4200
72.4300	13048.4850
72.4400	12701.9150
72.4500	13076.6400
72.4600	13332.3575
72.4700	13403.9100
72.4800	13422.5550
72.4900	13136.5050
72.5000	13144.9150
72.5100	13287.1775
72.5200	13230.5425
72.5300	13290.9550
72.5400	13177.8600
72.5500	13061.8225
72.5600	12942.4800
72.5700	13367.0275
72.5800	13654.8250
72.5900	13462.5675
72.6000	13188.9175
72.6100	13046.3225
72.6200	13424.4875
72.6300	13553.4400
72.6400	13274.7650
72.6500	13085.6675
72.6600	13017.8425
72.6700	13171.4475
72.6800	13513.0475
72.6900	13639.2900
72.7000	13579.8050
72.7100	13442.9775
72.7200	13308.4400
72.7300	13480.5800
72.7400	13845.9250
72.7500	13545.0825
72.7600	13396.1725
72.7700	13663.6500
72.7800	13868.7675
72.7900	13873.9625
72.8000	13817.9825
72.8100	13810.6700
72.8200	13678.0100
72.8300	13663.9750
72.8400	13710.6600
72.8500	13684.6975
72.8600	13645.3600
72.8700	13793.0775
72.8800	13681.0550
72.8900	13566.6675
72.9000	13822.0200
72.9100	13615.6650
72.9200	13437.9325
72.9300	13407.4800
72.9400	13468.3475
72.9500	13686.6400
72.9600	13868.2950
72.9700	14033.4525
72.9800	14057.5450
72.9900	14033.3325
73.0000	13842.4075
73.0100	13574.2775
73.0200	13748.3475
73.0300	13582.0825
73.0400	13834.3550
73.0500	13956.2450
73.0600	13470.4200
73.0700	13931.8975
73.0800	13994.7400
73.0900	13556.7100
73.1000	13585.8600
73.1100	13799.6175
73.1200	13655.3050
73.1300	13596.7225
73.1400	13411.5400
73.1500	13969.6300
73.1600	14556.6600
73.1700	14740.5300
73.1800	14414.1275
73.1900	14294.9100
73.2000	14297.2875
73.2100	14424.7525
73.2200	14327.0200
73.2300	14248.2650
73.2400	14277.1950
73.2500	14493.8575
73.2600	14543.0050
73.2700	14752.4750
73.2800	14489.8500
73.2900	14344.6200
73.3000	14421.0200
73.3100	14538.4050
73.3200	14705.0375
73.3300	14871.6725
73.3400	14859.8500
73.3500	14396.8950
73.3600	14254.9100
73.3700	14841.0650
73.3800	15296.7875
73.3900	15351.8875
73.4000	15459.0750
73.4100	15386.6800
73.4200	15373.3050
73.4300	15479.4800
73.4400	15380.6125
73.4500	15300.0000
73.4600	15164.0275
73.4700	15376.1100
73.4800	15602.2650
73.4900	15330.2825
73.5000	15202.2350
73.5100	15598.8625
73.5200	16578.8275
73.5300	16991.5825
73.5400	16580.5975
73.5500	16423.0175
73.5600	16946.3550
73.5700	17348.0075
73.5800	17395.8225
73.5900	17404.1700
73.6000	17947.8575
73.6100	18068.8300
73.6200	18335.1450
73.6300	18701.9475
73.6400	19209.8600
73.6500	19757.8650
73.6600	19798.1750
73.6700	19914.1475
73.6800	20500.9125
73.6900	20897.5975
73.7000	21101.6650
73.7100	21380.5800
73.7200	21749.0800
73.7300	22377.2600
73.7400	22573.3175
73.7500	22506.2975
73.7600	23329.2800
73.7700	24258.2125
73.7800	24568.4650
73.7900	25148.9100
73.8000	25835.3600
73.8100	27343.8325
73.8200	28516.1950
73.8300	29287.9175
73.8400	30175.1075
73.8500	31633.2200
73.8600	33443.2250
73.8700	34660.2825
73.8800	36574.0500
73.8900	38489.6925
73.9000	40357.0725
73.9100	43399.8075
73.9200	47507.0725
73.9300	50410.7200
73.9400	52878.3175
73.9500	56180.5075
73.9600	59514.3350
73.9700	63261.2875
73.9800	67706.7825
73.9900	72222.0950
74.0000	76181.1475
74.0100	77799.4250
74.0200	78787.1625
74.0300	80653.6000
74.0400	80815.0600
74.0500	78529.3800
74.0600	75434.9375
74.0700	73288.2925
74.0800	70964.5050
74.0900	68076.4775
74.1000	64076.2875
74.1100	61349.6475
74.1200	59740.9325
74.1300	57879.7300
74.1400	56727.1125
74.1500	55550.7225
74.1600	54433.9000
74.1700	54284.3675
74.1800	54533.1150
74.1900	54504.0625
74.2000	55487.4100
74.2100	56139.7700
74.2200	56112.8775
74.2300	55691.0000
74.2400	55739.9950
74.2500	55626.7600
74.2600	53584.1950
74.2700	51272.7750
74.2800	48824.4400
74.2900	46059.3025
74.3000	43612.1725
74.3100	41549.9350
74.3200	39361.9650
74.3300	37226.4875
74.3400	34472.5475
74.3500	32513.5450
74.3600	31363.7425
74.3700	29918.5950
74.3800	28926.9800
74.3900	28150.3500
74.4000	26955.4075
74.4100	25735.0775
74.4200	24801.6650
74.4300	23720.7900
74.4400	22684.4550
74.4500	22353.6575
74.4600	21838.4125
74.4700	21469.5325
74.4800	21419.5400
74.4900	20912.7900
74.5000	20143.3675
74.5100	19596.3850
74.5200	19747.7275
74.5300	19463.3300
74.5400	18825.6425
74.5500	18322.8000
74.5600	17697.7200
74.5700	17477.4325
74.5800	17587.5425
74.5900	17410.6450
74.6000	17175.5925
74.6100	17268.4150
74.6200	17073.3650
74.6300	16610.3350
74.6400	16443.4425
74.6500	16571.2650
74.6600	16599.4875
74.6700	15829.3675
74.6800	15763.9875
74.6900	16114.0900
74.7000	15762.9975
74.7100	15721.9575
74.7200	15816.2350
74.7300	15480.8275
74.7400	14829.6975
74.7500	14482.9425
74.7600	14480.2250
74.7700	14540.2900
74.7800	14576.7375
74.7900	14522.9300
74.8000	14322.3000
74.8100	14367.5950
74.8200	14667.8500
74.8300	14860.3375
74.8400	15211.6675
74.8500	14783.4500
74.8600	13824.0525
74.8700	14059.3650
74.8800	14530.3450
74.8900	14713.8575
74.9000	14960.6025
74.9100	14625.1225
74.9200	14363.4300
74.9300	14423.4525
74.9400	14550.2725
74.9500	14285.8575
74.9600	14146.8425
74.9700	14210.0200
74.9800	14216.6675
74.9900	14577.1700
75.0000	14436.2350
75.0100	14153.3075
75.0200	13923.2050
75.0300	13933.3875
75.0400	14113.3400
75.0500	13886.7125
75.0600	14099.8300
75.0700	14386.6525
75.0800	14210.1775
75.0900	13993.4400
75.1000	14073.1300
75.1100	13567.6925
75.1200	13715.5850
75.1300	14153.1775
75.1400	13840.8925
75.1500	13829.3725
75.1600	13933.4825
75.1700	13840.1950
75.1800	13381.4675
75.1900	13309.2125
75.2000	13569.5200
75.2100	13460.8075
75.2200	13731.5325
75.2300	13621.8050
75.2400	13476.1175
75.2500	13420.6825
75.2600	13522.2875
75.2700	13779.2525
75.2800	13916.3675
75.2900	14168.6250
75.3000	14058.3550
75.3100	14032.3225
75.3200	13924.8000
75.3300	13832.9725
75.3400	13836.8900
75.3500	13657.9025
75.3600	13232.5500
75.3700	13304.2850
75.3800	13668.5625
75.3900	13832.8975
75.4000	13708.0975
75.4100	13411.7450
75.4200	13600.3175
75.4300	13648.3100
75.4400	13572.9375
75.4500	13768.2750
75.4600	14190.1150
75.4700	14301.0625
75.4800	14352.0300
75.4900	13849.8825
75.5000	13627.9600
75.5100	14115.7175
75.5200	13783.6350
75.5300	13304.2975
75.5400	13556.1925
75.5500	13993.7875
75.5600	13893.3150
75.5700	13746.2775
75.5800	13924.5525
75.5900	13993.8725
75.6000	13670.7700
75.6100	13368.0575
75.6200	13467.5950
75.6300	13455.2025
75.6400	13484.9150
75.6500	13428.7425
75.6600	13756.8550
75.6700	14227.2475
75.6800	13749.4675
75.6900	13353.0175
75.7000	13504.4300
75.7100	13816.4350
75.7200	14074.8600
75.7300	13756.6600
75.7400	13561.9825
75.7500	13842.7325
75.7600	13911.5600
75.7700	13417.7200
75.7800	13617.6050
75.7900	14084.5075
75.8000	13852.4950
75.8100	13672.5950
75.8200	13935.5225
75.8300	14001.8875
75.8400	13717.5325
75.8500	13468.5975
75.8600	13252.9300
75.8700	12885.3325
75.8800	12817.6050
75.8900	13095.9650
75.9000	13223.5375
75.9100	12942.4375
75.9200	12808.7500
75.9300	12850.0000
75.9400	13006.6000
75.9500	12842.6775
75.9600	12630.4325
75.9700	12929.6625
75.9800	13384.6950
75.9900	13569.5550
76.0000	13192.3425
76.0100	13102.3475
76.0200	13321.2700
76.0300	13705.6950
76.0400	13669.6400
76.0500	13717.6775
76.0600	13561.1775
76.0700	13245.4900
76.0800	13163.8175
76.0900	13150.0000
76.1000	13452.3775
76.1100	13822.7000
76.1200	13172.8300
76.1300	13052.4975
76.1400	13564.4125
76.1500	13823.8500
76.1600	13734.3875
76.1700	13616.6675
76.1800	13830.9025
76.1900	13457.5900
76.2000	13404.5550
76.2100	13428.9600
76.2200	13409.8250
76.2300	13344.3500
76.2400	13009.6325
76.2500	12888.8975
76.2600	13305.5575
76.2700	13583.3325
76.2800	13427.8400
76.2900	13404.1150
76.3000	13223.8025
76.3100	13234.5400
76.3200	13085.0550
76.3300	13320.2300
76.3400	13808.0575
76.3500	13816.8725
76.3600	14189.3800
76.3700	14312.9400
76.3800	13943.5800
76.3900	13599.0800
76.4000	13243.6650
76.4100	13296.5975
76.4200	13246.4675
76.4300	13245.3525
76.4400	13611.5850
76.4500	13625.6425
76.4600	13422.5225
76.4700	13356.9850
76.4800	13427.4475
76.4900	13376.8625
76.5000	13232.2575
76.5100	13347.8200
76.5200	13108.7350
76.5300	12820.9850
76.5400	13012.7475
76.5500	13408.3800
76.5600	13670.3350
76.5700	13752.6625
76.5800	13592.7275
76.5900	13630.9125
76.6000	13711.3600
76.6100	13567.4375
76.6200	13251.5825
76.6300	13208.8425
76.6400	13464.0975
76.6500	13525.4275
76.6600	13386.8400
76.6700	13181.5975
76.6800	13150.8550
76.6900	13392.8875
76.7000	13562.2625
76.7100	13216.9750
76.7200	12940.3600
76.7300	13453.7650
76.7400	13891.1500
76.7500	13384.1775
76.7600	13166.3550
76.7700	13454.0975
76.7800	13884.4350
76.7900	13519.7475
76.8000	13160.3425
76.8100	13072.3000
76.8200	13274.5975
76.8300	13413.4100
76.8400	13407.7175
76.8500	13700.0700
76.8600	13719.8550
76.8700	13196.1775
76.8800	13121.1050
76.8900	13331.3925
76.9000	13587.6975
76.9100	13538.6125
76.9200	13450.5825
76.9300	13480.7900
76.9400	13322.6100
76.9500	13130.2475
76.9600	13018.6625
76.9700	13175.3175
76.9800	13642.9850
76.9900	13681.8150
77.0000	12804.1475
77.0100	13024.5175
77.0200	13497.0100
77.0300	13212.7625
77.0400	13328.0675
77.0500	13504.5725
77.0600	13540.8475
77.0700	13621.6700
77.0800	13621.2525
77.0900	13667.0675
77.1000	13572.9725
77.1100	13581.6025
77.1200	13724.1250
77.1300	13670.9150
77.1400	13360.6600
77.1500	13125.9000
77.1600	13226.8950
77.1700	13390.7500
77.1800	13203.7050
77.1900	13148.1300
77.2000	13204.6375
77.2100	13431.9850
77.2200	13463.6725
77.2300	13369.1225
77.2400	13412.0100
77.2500	13108.3675
77.2600	12943.1175
77.2700	13047.7750
77.2800	13121.5475
77.2900	13283.7300
77.3000	13497.9425
77.3100	13497.3875
77.3200	13165.9875
77.3300	13233.9725
77.3400	13404.6975
77.3500	13421.5100
77.3600	13564.5100
77.3700	13783.5775
77.3800	14055.0500
77.3900	13601.4850
77.4000	12975.9250
77.4100	12919.1550
77.4200	12649.6275
77.4300	12952.9200
77.4400	13214.1575
77.4500	13290.6075
77.4600	13290.3975
77.4700	13240.5000
77.4800	13264.2800
77.4900	13364.3025
77.5000	13621.4275
77.5100	13769.0450
77.5200	13383.4425
77.5300	13483.1700
77.5400	13907.0750
77.5500	14218.8975
77.5600	14240.5925
77.5700	13838.3775
77.5800	13597.6400
77.5900	13316.9925
77.6000	13259.3300
77.6100	13319.1175
77.6200	13321.3675
77.6300	13511.6200
77.6400	13652.3450
77.6500	13590.6300
77.6600	13523.8300
77.6700	13440.6500
77.6800	13259.8225
77.6900	13461.1525
77.7000	13578.8525
77.7100	13481.0050
77.7200	13533.1375
77.7300	13592.8275
77.7400	13742.4000
77.7500	13527.2675
77.7600	13283.3325
77.7700	13406.7000
77.7800	13481.0225
77.7900	13390.7675
77.8000	13001.3200
77.8100	12787.9400
77.8200	13063.2425
77.8300	13117.2450
77.8400	13490.7300
77.8500	13442.3550
77.8600	13180.7275
77.8700	13036.5900
77.8800	13193.7725
77.8900	13681.9775
77.9000	13665.4275
77.9100	13225.2825
77.9200	13471.3150
77.9300	13835.6075
77.9400	13442.8125
77.9500	13161.7375
77.9600	13543.0850
77.9700	13504.2875
77.9800	13020.5800
77.9900	13278.1275
78.0000	13730.2175
78.0100	13381.4425
78.0200	13116.2225
78.0300	13251.8000
78.0400	13184.2550
78.0500	12960.3950
78.0600	12800.4775
78.0700	12759.4550
78.0800	12795.0275
78.0900	13345.9975
78.1000	13674.3900
78.1100	13352.0650
78.1200	13036.6125
78.1300	12931.1050
78.1400	13152.8350
78.1500	13210.5400
78.1600	12889.9975
78.1700	12603.3450
78.1800	12469.4550
78.1900	12688.2450
78.2000	12968.2950
78.2100	13307.0650
78.2200	13346.7850
78.2300	13122.2975
78.2400	13304.7650
78.2500	13349.0450
78.2600	13129.5650
78.2700	13210.3525
78.2800	13106.9800
78.2900	13074.7875
78.3000	13136.1875
78.3100	12873.7225
78.3200	12897.9700
78.3300	13031.1475
78.3400	13205.1650
78.3500	13623.2925
78.3600	13409.3050
78.3700	12744.1500
78.3800	12577.5400
78.3900	12979.6875
78.4000	13591.2400
78.4100	14102.1050
78.4200	14010.2550
78.4300	13809.4150
78.4400	13515.4050
78.4500	12991.5200
78.4600	12917.2625
78.4700	13466.2525
78.4800	13630.6150
78.4900	13311.8175
78.5000	13081.9925
78.5100	12753.2675
78.5200	12850.9950
78.5300	13337.2700
78.5400	13279.4250
78.5500	12726.0200
78.5600	12656.8425
78.5700	13296.1150
78.5800	13403.4700
78.5900	13181.2025
78.6000	13232.4525
78.6100	13283.3325
78.6200	13339.7075
78.6300	13467.8875
78.6400	13683.6350
78.6500	13706.0725
78.6600	13389.1475
78.6700	13312.6900
78.6800	13390.6100
78.6900	13270.6675
78.7000	12929.8650
78.7100	12573.7600
78.7200	12384.3000
78.7300	12933.9550
78.7400	13381.2325
78.7500	13244.6925
78.7600	13112.4725
78.7700	12708.1050
78.7800	12491.7050
78.7900	13018.9350
78.8000	13345.8225
78.8100	13907.4000
78.8200	13860.3775
78.8300	13251.0475
78.8400	13439.5350
78.8500	13829.1400
78.8600	13626.1425
78.8700	13165.7300
78.8800	13245.6875
78.8900	13834.1200
78.9000	13636.8400
78.9100	13006.4625
78.9200	13003.9825
78.9300	12906.5150
78.9400	12932.0350
78.9500	13071.9125
78.9600	13293.4100
78.9700	13623.7475
78.9800	13761.4125
78.9900	13736.5375
79.0000	13428.6175
79.0100	13216.6675
79.0200	13375.7200
79.0300	13630.9700
79.0400	13593.0225
79.0500	13399.1550
79.0600	13352.0375
79.0700	13226.4000
79.0800	13041.8650
79.0900	13488.1900
79.1000	13640.2800
79.1100	13580.8625
79.1200	13683.3325
79.1300	13459.0450
79.1400	13348.7425
79.1500	13185.1025
79.1600	13493.1275
79.1700	13586.4250
79.1800	13282.6025
79.1900	13412.7950
79.2000	13165.1100
79.2100	13083.4375
79.2200	13481.4075
79.2300	13593.9875
79.2400	13475.3225
79.2500	13201.9925
79.2600	13061.3325
79.2700	13475.2650
79.2800	13466.0875
79.2900	13347.2825
79.3000	13216.7800
79.3100	13191.9075
79.3200	13316.6675
79.3300	13027.5625
79.3400	12473.6275
79.3500	12682.8650
79.3600	13217.8150
79.3700	13545.7625
79.3800	13737.2850
79.3900	13552.3050
79.4000	13364.6950
79.4100	13154.3175
79.4200	13195.6600
79.4300	13126.4100
79.4400	12996.5750
79.4500	13200.9900
79.4600	13137.7550
79.4700	13095.0825
79.4800	13295.0700
79.4900	13364.7125
79.5000	13275.5250
79.5100	13179.4325
79.5200	13038.3100
79.5300	13033.7575
79.5400	13174.4450
79.5500	13456.6425
79.5600	13642.6375
79.5700	13659.3025
79.5800	13620.1575
79.5900	13211.3075
79.6000	13130.5600
79.6100	13439.4800
79.6200	13429.1300
79.6300	13444.8950
79.6400	13440.3750
79.6500	13180.7700
79.6600	13191.3275
79.6700	13093.6400
79.6800	13214.0050
79.6900	13552.2000
79.7000	13772.6825
79.7100	13428.1775
79.7200	13475.3350
79.7300	13725.7050
79.7400	13397.3750
79.7500	13164.7625
79.7600	13307.8275
79.7700	13359.0700
79.7800	13077.2325
79.7900	13540.3875
79.8000	14068.5600
79.8100	13712.1750
79.8200	13175.4400
79.8300	13215.2575
79.8400	13372.1725
79.8500	13312.9000
79.8600	13209.1425
79.8700	13177.8200
79.8800	13376.1675
79.8900	13525.9375
79.9000	13514.7925
79.9100	13129.2400
79.9200	13194.7850
79.9300	13399.9300
79.9400	13277.7375
79.9500	13353.7775
79.9600	13579.6950
79.9700	13785.2250
79.9800	13162.7625
79.9900	12859.3050
80.0000	13511.1400
80.0100	14135.1725
80.0200	14174.1025
80.0300	13912.9950
80.0400	13585.2725
80.0500	13381.4900
80.0600	13440.6975
80.0700	13518.5050
80.0800	13200.2725
80.0900	13062.8425
80.1000	13268.4125
80.1100	13239.0175
80.1200	13186.9900
80.1300	13216.6675
80.1400	13161.1950
80.1500	13162.8875
80.1600	13458.8150
80.1700	13287.7325
80.1800	13343.7425
80.1900	13226.7650
80.2000	13177.1750
80.2100	13529.3325
80.2200	13670.2825
80.2300	13312.0875
80.2400	13563.3300
80.2500	14081.3050
80.2600	13745.5550
80.2700	13248.6975
80.2800	13164.6150
80.2900	13373.5700
80.3000	13518.4575
80.3100	13284.1925
80.3200	13129.4650
80.3300	13332.7225
80.3400	13789.5150
80.3500	13727.1900
80.3600	13383.6675
80.3700	13289.0025
80.3800	13404.9650
80.3900	13147.9150
80.4000	12831.5650
80.4100	12918.0500
80.4200	13359.4050
80.4300	13742.1450
80.4400	13512.6275
80.4500	13183.7575
80.4600	13107.4550
80.4700	13367.0900
80.4800	13214.9775
80.4900	12493.1100
80.5000	12472.2325
80.5100	12908.2375
80.5200	13197.2700
80.5300	13491.5300
80.5400	13762.1625
80.5500	13931.0750
80.5600	13900.5350
80.5700	13722.9475
80.5800	13348.2075
80.5900	13033.8975
80.6000	13233.3325
80.6100	13450.0000
80.6200	13422.4200
80.6300	13565.4550
80.6400	13442.6600
80.6500	13233.3325
80.6600	13104.6950
80.6700	13018.3750
80.6800	13060.8925
80.6900	13000.6700
80.7000	12896.5975
80.7100	13206.4225
80.7200	13520.0600
80.7300	13292.9525
80.7400	13028.2600
80.7500	12919.0875
80.7600	13041.0225
80.7700	13660.4600
80.7800	13481.1925
80.7900	13319.3800
80.8000	13263.9950
80.8100	12998.3250
80.8200	12955.8250
80.8300	13355.0750
80.8400	13709.1675
80.8500	13432.5250
80.8600	13035.0375
80.8700	13074.1050
80.8800	13473.2075
80.8900	13628.3675
80.9000	13757.3675
80.9100	13900.0000
80.9200	13671.0700
80.9300	13474.1775
80.9400	13759.6200
80.9500	14137.3025
80.9600	13874.7575
80.9700	13502.6100
80.9800	13294.4550
80.9900	13367.9325
81.0000	13798.6025
81.0100	13742.2875
81.0200	13672.1250
81.0300	13754.2825
81.0400	13277.8450
81.0500	12806.9775
81.0600	12680.1075
81.0700	12695.6900
81.0800	12897.7975
81.0900	12649.6375
81.1000	12771.7800
81.1100	13115.0675
81.1200	12826.0475
81.1300	12800.8675
81.1400	13085.3450
81.1500	13055.5450
81.1600	12776.5975
81.1700	12733.7100
81.1800	12707.1825
81.1900	12671.4000
81.2000	13081.5100
81.2100	13456.2900
81.2200	13306.9450
81.2300	13406.8450
81.2400	13432.7875
81.2500	13129.9525
81.2600	13135.1350
81.2700	13014.6550
81.2800	12796.8925
81.2900	12948.8425
81.3000	13109.1075
81.3100	13271.4700
81.3200	13481.9425
81.3300	13477.1750
81.3400	13234.6300
81.3500	13165.2375
81.3600	13415.3150
81.3700	13357.4200
81.3800	13228.8150
81.3900	13421.2775
81.4000	13459.0675
81.4100	13519.7125
81.4200	13733.3300
81.4300	13298.5900
81.4400	13130.2075
81.4500	13531.7225
81.4600	13547.0625
81.4700	13397.0000
81.4800	13593.7125
81.4900	13765.1725
81.5000	13541.1850
81.5100	13412.0525
81.5200	13368.3175
81.5300	13136.6600
81.5400	12900.1975
81.5500	12898.3100
81.5600	13347.6050
81.5700	13485.2975
81.5800	13433.0700
81.5900	13407.8825
81.6000	13162.5800
81.6100	13060.5200
81.6200	13173.9425
81.6300	13775.4400
81.6400	14044.5675
81.6500	13900.0000
81.6600	13601.1950
81.6700	13503.9025
81.6800	13461.3525
81.6900	13199.0175
81.7000	12973.3225
81.7100	13056.6525
81.7200	13433.7550
81.7300	13734.2350
81.7400	13860.4600
81.7500	13639.2375
81.7600	13505.6450
81.7700	13557.6300
81.7800	13459.6425
81.7900	13329.1275
81.8000	13220.1050
81.8100	12796.4000
81.8200	12763.2400
81.8300	13261.8025
81.8400	13393.0725
81.8500	13298.6175
81.8600	13039.7200
81.8700	12797.2500
81.8800	13199.5975
81.8900	13710.9500
81.9000	13598.9150
81.9100	13490.1425
81.9200	13864.0850
81.9300	13485.8975
81.9400	13085.1400
81.9500	13551.2975
81.9600	13534.7925
81.9700	13122.6000
81.9800	13000.0000
81.9900	13081.0075
82.0000	13824.9275
82.0100	13950.1350
82.0200	13323.7875
82.0300	13404.4700
82.0400	13542.0950
82.0500	13458.9900
82.0600	13098.1350
82.0700	13340.5150
82.0800	13879.5625
82.0900	13789.6025
82.1000	13469.0750
82.1100	12842.0375
82.1200	12773.2025
82.1300	13247.4725
82.1400	13129.4900
82.1500	13152.5075
82.1600	13499.9525
82.1700	13223.3100
82.1800	13258.6800
82.1900	13692.1775
82.2000	13719.3300
82.2100	13425.9650
82.2200	13251.2525
82.2300	13195.0050
82.2400	12936.3050
82.2500	12632.3575
82.2600	12838.9425
82.2700	13277.7700
82.2800	13488.2525
82.2900	13138.4650
82.3000	13096.3925
82.3100	13304.0675
82.3200	13187.4150
82.3300	13410.4350
82.3400	13623.1900
82.3500	13492.7800
82.3600	13239.2075
82.3700	13108.9300
82.3800	13045.2350
82.3900	12974.4050
82.4000	13002.3675
82.4100	13238.5650
82.4200	13621.8525
82.4300	13577.0200
82.4400	12990.9775
82.4500	12739.1525
82.4600	12959.2775
82.4700	13234.8225
82.4800	13482.4850
82.4900	13636.7750
82.5000	13478.5175
82.5100	13255.4850
82.5200	13439.1925
82.5300	13704.5250
82.5400	13508.6575
82.5500	13354.4925
82.5600	13470.0225
82.5700	13578.9000
82.5800	13340.0100
82.5900	13074.4475
82.6000	13253.2375
82.6100	13203.4925
82.6200	13176.5100
82.6300	13547.4950
82.6400	13315.0825
82.6500	13190.6725
82.6600	13416.6675
82.6700	13354.5800
82.6800	13282.2650
82.6900	13186.8800
82.7000	13019.1750
82.7100	12818.1425
82.7200	12796.3950
82.7300	12627.5450
82.7400	12797.3975
82.7500	13186.4450
82.7600	13233.3325
82.7700	13082.9250
82.7800	13118.0600
82.7900	13213.6075
82.8000	13087.1000
82.8100	13317.1775
82.8200	13380.0975
82.8300	13253.0050
82.8400	13458.9725
82.8500	13767.7600
82.8600	13863.7025
82.8700	13375.4200
82.8800	13248.0125
82.8900	13518.6150
82.9000	13197.2800
82.9100	13235.9600
82.9200	13417.8000
82.9300	13581.9500
82.9400	13806.9075
82.9500	13844.9775
82.9600	13794.3525
82.9700	14060.8625
82.9800	13705.7975
82.9900	13117.5925
83.0000	13221.2775
83.0100	13704.4300
83.0200	14093.0350
83.0300	13791.5425
83.0400	13561.4925
83.0500	13722.0550
83.0600	13992.2625
83.0700	14150.0000
83.0800	14062.2500
83.0900	13667.5250
83.1000	13444.7225
83.1100	13394.7900
83.1200	13519.1250
83.1300	13445.0275
83.1400	13506.6000
83.1500	13678.2425
83.1600	13145.5850
83.1700	12714.9900
83.1800	12692.0825
83.1900	12560.0425
83.2000	12669.4425
83.2100	13075.6625
83.2200	13407.3150
83.2300	13418.9425
83.2400	13544.5675
83.2500	13819.0575
83.2600	14015.0650
83.2700	13888.2000
83.2800	13492.9675
83.2900	13236.6200
83.3000	13211.8025
83.3100	13353.0625
83.3200	13773.9200
83.3300	14021.6025
83.3400	13714.8800
83.3500	13212.7175
83.3600	13228.4900
83.3700	13422.4325
83.3800	13166.6250
83.3900	13357.2050
83.4000	13404.4725
83.4100	13254.9825
83.4200	13557.7700
83.4300	13620.4450
83.4400	13507.9850
83.4500	13144.1925
83.4600	12955.4750
83.4700	13412.8950
83.4800	13777.3550
83.4900	13746.6625
83.5000	13406.7375
83.5100	13201.3125
83.5200	13519.0700
83.5300	13549.6250
83.5400	13255.4575
83.5500	13269.8350
83.5600	13220.2900
83.5700	13272.8875
83.5800	13467.9000
83.5900	13353.1425
83.6000	13233.9375
83.6100	13517.6175
83.6200	13706.2575
83.6300	13261.7850
83.6400	13012.1125
83.6500	13245.9825
83.6600	13539.0300
83.6700	13596.6175
83.6800	13413.8775
83.6900	13402.2075
83.7000	13389.2100
83.7100	13265.0475
83.7200	13294.0700
83.7300	13478.4300
83.7400	13488.7975
83.7500	13589.0050
83.7600	13749.4900
83.7700	13613.1425
83.7800	13474.2550
83.7900	13338.4725
83.8000	13344.8200
83.8100	13570.0200
83.8200	13674.7625
83.8300	13512.4675
83.8400	13221.0875
83.8500	12937.8075
83.8600	12945.4725
83.8700	13160.3200
83.8800	13045.2150
83.8900	13037.6200
83.9000	13610.1375
83.9100	13914.5875
83.9200	13927.2525
83.9300	13880.1075
83.9400	13732.9375
83.9500	13128.2000
83.9600	12285.3325
83.9700	12604.6875
83.9800	13260.3725
83.9900	13043.4425
84.0000	12869.1725
84.0100	13000.3500
84.0200	13186.7800
84.0300	13554.0575
84.0400	13520.5250
84.0500	13087.6075
84.0600	13138.1050
84.0700	13442.7575
84.0800	13559.4000
84.0900	13752.3850
84.1000	13832.4600
84.1100	13673.1500
84.1200	13481.9450
84.1300	13442.3450
84.1400	13652.6400
84.1500	13850.5150
84.1600	13350.4475
84.1700	13070.0750
84.1800	13359.1625
84.1900	13323.7375
84.2000	12979.9925
84.2100	12986.5700
84.2200	13579.2800
84.2300	13840.7600
84.2400	13648.6375
84.2500	13499.6250
84.2600	13197.1100
84.2700	12916.4925
84.2800	13261.9100
84.2900	13549.3625
84.3000	13306.7375
84.3100	13284.6375
84.3200	13618.1800
84.3300	13850.3925
84.3400	13765.6800
84.3500	13582.9850
84.3600	13357.1925
84.3700	13116.2600
84.3800	13058.3800
84.3900	13234.2000
84.4000	13651.1900
84.4100	14000.4325
84.4200	14016.3450
84.4300	13707.5625
84.4400	13775.8700
84.4500	13715.7800
84.4600	13174.6000
84.4700	13150.2725
84.4800	13291.6375
84.4900	13149.9150
84.5000	12991.6550
84.5100	13099.9725
84.5200	13541.4775
84.5300	13725.1200
84.5400	13674.9100
84.5500	13591.9525
84.5600	13691.0650
84.5700	13800.3925
84.5800	13400.9125
84.5900	13374.0600
84.6000	13475.6175
84.6100	13242.1075
84.6200	13108.5550
84.6300	13157.8050
84.6400	13316.2500
84.6500	13217.7850
84.6600	13306.4750
84.6700	13632.8225
84.6800	14129.8025
84.6900	14203.1625
84.7000	13602.1250
84.7100	13424.4400
84.7200	13409.0900
84.7300	13193.1625
84.7400	13379.6500
84.7500	13486.0250
84.7600	13315.8650
84.7700	13399.7925
84.7800	13293.2925
84.7900	13232.4325
84.8000	13702.6175
84.8100	14009.9025
84.8200	13629.1225
84.8300	13325.3875
84.8400	13259.0000
84.8500	13544.5025
84.8600	13768.6500
84.8700	13633.6250
84.8800	13346.6200
84.8900	13148.4575
84.9000	13282.3825
84.9100	13366.0150
84.9200	13408.1650
84.9300	13465.6375
84.9400	13443.2475
84.9500	13252.5200
84.9600	13222.9725
84.9700	13292.2325
84.9800	13405.0525
84.9900	13566.2725
85.0000	13648.3875
85.0100	13505.3575
85.0200	13340.1950
85.0300	13643.5550
85.0400	13672.8050
85.0500	13400.8950
85.0600	13155.9300
85.0700	13208.7600
85.0800	13500.0000
85.0900	13475.7250
85.1000	13417.6500
85.1100	13359.0850
85.1200	13406.0400
85.1300	13305.7075
85.1400	13326.4700
85.1500	13703.2325
85.1600	13915.0275
85.1700	13660.5500
85.1800	13526.5600
85.1900	13934.4975
85.2000	13554.8975
85.2100	13093.4875
85.2200	13259.2350
85.2300	13257.4175
85.2400	13636.3625
85.2500	13800.1625
85.2600	13598.7225
85.2700	13625.3250
85.2800	13672.7000
85.2900	13365.3375
85.3000	12966.6675
85.3100	13198.3900
85.3200	13250.3575
85.3300	13184.9700
85.3400	13764.7600
85.3500	14049.2675
85.3600	13850.7325
85.3700	13865.1800
85.3800	13661.2925
85.3900	13495.4250
85.4000	13671.5250
85.4100	13710.2875
85.4200	13507.9175
85.4300	13222.2775
85.4400	13187.2050
85.4500	13021.8825
85.4600	12962.9500
85.4700	13461.9650
85.4800	13535.6350
85.4900	13285.0550
85.5000	13400.0600
85.5100	13669.2750
85.5200	13530.9200
85.5300	13478.6050
85.5400	13725.4550
85.5500	13653.6850
85.5600	13567.5975
85.5700	13628.6275
85.5800	13590.9450
85.5900	13190.8675
85.6000	13111.8800
85.6100	13397.0525
85.6200	13371.6300
85.6300	13353.8200
85.6400	13425.5075
85.6500	13275.8775
85.6600	13296.4450
85.6700	13476.5675
85.6800	13332.9100
85.6900	13332.6125
85.7000	13584.6750
85.7100	13700.0000
85.7200	13536.5150
85.7300	13606.7300
85.7400	13705.6400
85.7500	13304.6450
85.7600	13348.4400
85.7700	13602.3000
85.7800	13411.6050
85.7900	13318.5575
85.8000	13339.2450
85.8100	13327.3700
85.8200	13602.2225
85.8300	13677.5975
85.8400	13547.5500
85.8500	13645.0550
85.8600	13747.5050
85.8700	13621.5450
85.8800	13394.8400
85.8900	13396.1600
85.9000	13180.9300
85.9100	13035.6750
85.9200	13670.9000
85.9300	13884.1625
85.9400	13594.6575
85.9500	13781.5650
85.9600	13618.1500
85.9700	13266.6675
85.9800	13572.3875
85.9900	13788.2225
86.0000	13540.3500
86.0100	13434.7475
86.0200	13431.9075
86.0300	13640.3675
86.0400	13973.1925
86.0500	14046.7775
86.0600	13876.9675
86.0700	13772.7750
86.0800	13807.5850
86.0900	13733.2850
86.1000	13542.4400
86.1100	13630.1150
86.1200	13639.7850
86.1300	13510.2475
86.1400	13736.1900
86.1500	13890.5425
86.1600	14015.0775
86.1700	13822.3975
86.1800	13739.7975
86.1900	13987.6075
86.2000	13837.9275
86.2100	13539.9225
86.2200	13601.7325
86.2300	13796.6575
86.2400	13930.7250
86.2500	13900.2875
86.2600	13507.2375
86.2700	13302.3150
86.2800	13493.6150
86.2900	13709.6925
86.3000	13895.1625
86.3100	13824.7550
86.3200	13700.6425
86.3300	13606.3725
86.3400	13067.8375
86.3500	12814.8500
86.3600	12922.3550
86.3700	13485.4850
86.3800	14057.4050
86.3900	13815.0700
86.4000	13736.5975
86.4100	14158.9200
86.4200	14073.0900
86.4300	13508.5475
86.4400	13293.8625
86.4500	13425.9700
86.4600	13534.3625
86.4700	13573.0900
86.4800	13484.7350
86.4900	13718.7475
86.5000	13603.4625
86.5100	13344.4625
86.5200	13879.2950
86.5300	14563.2050
86.5400	14600.5050
86.5500	14070.7000
86.5600	13722.9125
86.5700	13494.8100
86.5800	13583.1275
86.5900	13726.0600
86.6000	13673.0725
86.6100	13515.0375
86.6200	13310.8075
86.6300	13419.5575
86.6400	13553.0225
86.6500	13376.1000
86.6600	13467.8350
86.6700	13758.8300
86.6800	13685.3625
86.6900	13287.8425
86.7000	13278.7975
86.7100	13345.4375
86.7200	13562.9875
86.7300	13742.5650
86.7400	13616.4575
86.7500	13657.4875
86.7600	13735.5675
86.7700	13835.9600
86.7800	13947.5700
86.7900	13980.8250
86.8000	14159.6900
86.8100	14052.2900
86.8200	13865.1050
86.8300	13507.3325
86.8400	13549.4600
86.8500	13768.5000
86.8600	14053.5025
86.8700	14113.3325
86.8800	13380.9075
86.8900	12827.2500
86.9000	13000.0000
86.9100	12950.6125
86.9200	13397.8650
86.9300	13839.4700
86.9400	13511.4700
86.9500	13542.9725
86.9600	13624.5950
86.9700	13546.6250
86.9800	13750.0675
86.9900	14262.6950
87.0000	13854.2375
87.0100	13709.0500
87.0200	13590.2950
87.0300	13232.1225
87.0400	13467.1050
87.0500	13839.1075
87.0600	13984.6950
87.0700	13826.4350
87.0800	13880.2725
87.0900	14015.5875
87.1000	13753.1350
87.1100	13830.9275
87.1200	13967.6325
87.1300	13747.1275
87.1400	13580.6500
87.1500	13419.8975
87.1600	13559.7925
87.1700	13728.5475
87.1800	13976.4725
87.1900	13719.9850
87.2000	13448.8050
87.2100	13450.4325
87.2200	13440.4175
87.2300	13612.0900
87.2400	13478.8175
87.2500	13236.6300
87.2600	12979.6025
87.2700	13364.3025
87.2800	14061.6450
87.2900	14057.6925
87.3000	13809.3875
87.3100	13608.0125
87.3200	13386.4925
87.3300	13359.9200
87.3400	13545.4050
87.3500	13678.5350
87.3600	13355.8825
87.3700	13330.8200
87.3800	13748.1600
87.3900	14190.3575
87.4000	14226.3950
87.4100	14156.7675
87.4200	13909.5825
87.4300	13550.0175
87.4400	13819.8800
87.4500	13946.7850
87.4600	13972.9725
87.4700	14027.1550
87.4800	13707.5900
87.4900	13764.5750
87.5000	14296.0125
87.5100	14284.5825
87.5200	14083.3325
87.5300	13925.2175
87.5400	13755.7150
87.5500	13735.2275
87.5600	13802.4525
87.5700	14210.1100
87.5800	14186.9050
87.5900	13885.4700
87.6000	13371.6250
87.6100	13452.2150
87.6200	13994.6875
87.6300	13953.0925
87.6400	13612.7650
87.6500	13972.1175
87.6600	13960.1925
87.6700	14126.8600
87.6800	13961.5000
87.6900	13736.0375
87.7000	13624.7975
87.7100	13335.5975
87.7200	13477.7450
87.7300	14040.1000
87.7400	14226.8550
87.7500	13974.4200
87.7600	13633.6475
87.7700	13238.8725
87.7800	13263.0575
87.7900	13677.9425
87.8000	13896.3775
87.8100	14025.2875
87.8200	14091.1900
87.8300	14293.1775
87.8400	13951.6825
87.8500	13868.3925
87.8600	13829.2925
87.8700	13799.5675
87.8800	13842.5750
87.8900	14131.7275
87.9000	14134.8275
87.9100	13772.4725
87.9200	13589.6775
87.9300	13795.8650
87.9400	13958.3600
87.9500	13997.7125
87.9600	14033.7275
87.9700	13848.0175
87.9800	13735.9650
87.9900	13624.7950
88.0000	13926.6475
88.0100	14094.6975
88.0200	13559.2675
88.0300	13488.8025
88.0400	13386.3950
88.0500	13258.9425
88.0600	13678.0300
88.0700	14071.3175
88.0800	14309.6975
88.0900	13848.3400
88.1000	13719.0625
88.1100	13726.6425
88.1200	14027.2525
88.1300	13895.2075
88.1400	13695.4600
88.1500	13631.9025
88.1600	13531.6975
88.1700	13664.9575
88.1800	13671.6475
88.1900	13743.9600
88.2000	13876.3200
88.2100	13647.9800
88.2200	13946.0875
88.2300	14095.2150
88.2400	14395.9875
88.2500	14018.8300
88.2600	13771.4275
88.2700	13714.3375
88.2800	13638.1325
88.2900	13622.5925
88.3000	13739.8100
88.3100	14045.5475
88.3200	14031.8275
88.3300	13751.0750
88.3400	13937.2775
88.3500	13883.3325
88.3600	13877.4750
88.3700	13989.5000
88.3800	14240.0250
88.3900	14294.9925
88.4000	14258.4625
88.4100	13830.3975
88.4200	13436.3800
88.4300	13897.7525
88.4400	14021.0900
88.4500	14099.4350
88.4600	14119.4850
88.4700	13775.3850
88.4800	14082.1000
88.4900	14103.9825
88.5000	13540.7375
88.5100	13568.5750
88.5200	14163.1975
88.5300	14510.2925
88.5400	14809.4275
88.5500	14604.2375
88.5600	14477.6675
88.5700	14511.9125
88.5800	14464.5000
88.5900	14076.0075
88.6000	13608.2875
88.6100	13576.6525
88.6200	14220.7500
88.6300	13754.4925
88.6400	13846.5500
88.6500	14705.9550
88.6600	14794.2000
88.6700	14444.4225
88.6800	14277.7075
88.6900	14460.7900
88.7000	14605.7875
88.7100	14417.3650
88.7200	14106.5325
88.7300	14020.7500
88.7400	14464.5975
88.7500	14882.1475
88.7600	15077.3325
88.7700	15056.9450
88.7800	14943.5700
88.7900	14788.7100
88.8000	14315.8900
88.8100	14469.9850
88.8200	14422.9650
88.8300	14041.7225
88.8400	14534.9050
88.8500	14731.2900
88.8600	14240.4850
88.8700	15053.0150
88.8800	14910.0550
88.8900	14699.9625
88.9000	14378.2275
88.9100	14969.0750
88.9200	15233.3375
88.9300	15435.6975
88.9400	15143.1600
88.9500	14654.2500
88.9600	14514.9050
88.9700	14641.1000
88.9800	14840.0425
88.9900	14973.8450
89.0000	14953.2100
89.0100	14929.1325
89.0200	14741.5975
89.0300	15046.0875
89.0400	15449.3425
89.0500	15248.3175
89.0600	15153.9650
89.0700	15333.8300
89.0800	15571.6925
89.0900	15335.9325
89.1000	15372.4575
89.1100	16047.0000
89.1200	16215.7200
89.1300	16003.4000
89.1400	15981.2050
89.1500	16296.6300
89.1600	15947.9650
89.1700	15912.0425
89.1800	16031.7600
89.1900	16267.4925
89.2000	16683.2325
89.2100	16501.6750
89.2200	16604.4275
89.2300	17065.5900
89.2400	16715.2275
89.2500	16762.2100
89.2600	17027.0975
89.2700	17175.1675
89.2800	17656.4325
89.2900	17511.9575
89.3000	17802.9675
89.3100	18177.2050
89.3200	18380.8175
89.3300	18079.7525
89.3400	18168.7075
89.3500	18777.5900
89.3600	19058.6000
89.3700	19109.5325
89.3800	18755.5875
89.3900	19236.1225
89.4000	20084.0350
89.4100	20452.9450
89.4200	20855.0200
89.4300	21054.7500
89.4400	20980.7825
89.4500	21230.7450
89.4600	21435.1425
89.4700	21725.5075
89.4800	22161.5025
89.4900	22896.0725
89.5000	23469.2100
89.5100	24228.0525
89.5200	23964.1450
89.5300	23402.4900
89.5400	24591.8950
89.5500	25617.5775
89.5600	25759.7525
89.5700	26801.7600
89.5800	28213.2725
89.5900	28913.0100
89.6000	29207.8575
89.6100	29599.7450
89.6200	30582.2925
89.6300	31349.9425
89.6400	32135.2750
89.6500	33555.5250
89.6600	34987.9075
89.6700	36406.7900
89.6800	37672.5050
89.6900	39051.6950
89.7000	41198.0375
89.7100	42541.3750
89.7200	44401.0825
89.7300	45879.2950
89.7400	48189.1150
89.7500	49782.7100
89.7600	52228.5475
89.7700	55484.4450
89.7800	57466.0075
89.7900	60380.7200
89.8000	63016.7225
89.8100	65034.8850
89.8200	67290.5875
89.8300	68787.0600
89.8400	69991.3650
89.8500	70648.9425
89.8600	70142.6700
89.8700	69022.2600
89.8800	68680.0350
89.8900	66672.1550
89.9000	64391.7625
89.9100	61968.9050
89.9200	59854.6600
89.9300	56868.8425
89.9400	55829.9775
89.9500	54361.9250
89.9600	53536.5525
89.9700	51933.4775
89.9800	51391.3025
89.9900	51658.6875
90.0000	51301.6125
90.0100	50206.3300
90.0200	48558.2150
90.0300	48911.0200
90.0400	49495.9375
90.0500	48041.1375
90.0600	47992.7650
90.0700	49419.3250
90.0800	49490.4275
90.0900	49280.5600
90.1000	49814.5000
90.1100	50695.9950
90.1200	50459.6725
90.1300	49901.3375
90.1400	50061.6675
90.1500	48815.5450
90.1600	47579.6850
90.1700	45074.4125
90.1800	42401.7925
90.1900	41569.1875
90.2000	40502.4300
90.2100	39980.9825
90.2200	38854.9550
90.2300	36954.2200
90.2400	35244.8650
90.2500	33383.3800
90.2600	31932.9350
90.2700	30688.9800
90.2800	29383.6625
90.2900	28385.0650
90.3000	28559.8400
90.3100	28242.0275
90.3200	27586.9725
90.3300	26612.3000
90.3400	25742.1150
90.3500	24642.0650
90.3600	23613.3750
90.3700	23712.6825
90.3800	22783.5250
90.3900	22319.0950
90.4000	21810.1325
90.4100	21517.5625
90.4200	21710.8000
90.4300	21267.8300
90.4400	20790.2850
90.4500	19829.8800
90.4600	19523.8750
90.4700	19467.3600
90.4800	19102.2000
90.4900	18902.3675
90.5000	19029.7750
90.5100	18885.4300
90.5200	18378.7875
90.5300	18314.0950
90.5400	18289.3975
90.5500	18014.0025
90.5600	17972.4575
90.5700	17567.9800
90.5800	17293.2150
90.5900	17012.1825
90.6000	17212.1275
90.6100	17104.4125
90.6200	17181.6025
90.6300	16828.0500
90.6400	16405.2075
90.6500	16069.5325
90.6600	16017.4725
90.6700	16343.8500
90.6800	16459.3675
90.6900	15970.0050
90.7000	15820.2975
90.7100	15067.1950
90.7200	14812.0475
90.7300	15436.2175
90.7400	15645.6725
90.7500	15844.4200
90.7600	15567.8000
90.7700	15395.8825
90.7800	15620.1725
90.7900	15937.1950
90.8000	15546.9525
90.8100	15816.1375
90.8200	15501.4500
90.8300	15404.7850
90.8400	15516.0275
90.8500	15309.4600
90.8600	15365.7100
90.8700	15348.8175
90.8800	15045.7050
90.8900	15266.9550
90.9000	14935.4700
90.9100	14396.3275
90.9200	14356.2225
90.9300	14961.2125
90.9400	15123.5700
90.9500	14517.9125
90.9600	14114.9800
90.9700	14717.7300
90.9800	15039.9475
90.9900	14682.9200
91.0000	14389.3800
91.0100	14648.6450
91.0200	14023.9025
91.0300	14510.9500
91.0400	15112.9425
91.0500	14698.6150
91.0600	14308.7300
91.0700	14402.1650
91.0800	14577.8375
91.0900	14198.8350
91.1000	14053.3775
91.1100	14207.0350
91.1200	14511.7350
91.1300	14573.6300
91.1400	14222.5350
91.1500	14347.3600
91.1600	14302.1250
91.1700	13805.6675
91.1800	14302.4200
91.1900	14917.1200
91.2000	14572.3450
91.2100	14464.6875
91.2200	14210.8975
91.2300	14277.5175
91.2400	14290.1175
91.2500	14123.1425
91.2600	14472.9000
91.2700	14700.0125
91.2800	14280.9800
91.2900	13990.6700
91.3000	14412.2800
91.3100	14498.5500
91.3200	14193.3250
91.3300	14527.0525
91.3400	14552.3125
91.3500	14414.2150
91.3600	14544.9025
91.3700	14335.8850
91.3800	14400.7775
91.3900	14625.2050
91.4000	14247.1700
91.4100	14017.6125
91.4200	14414.9550
91.4300	14504.9625
91.4400	14516.0475
91.4500	14448.6200
91.4600	14501.2250
91.4700	13767.4225
91.4800	13920.6225
91.4900	13642.7650
91.5000	13669.6100
91.5100	14021.2250
91.5200	13607.2100
91.5300	13465.9200
91.5400	14237.2925
91.5500	14591.7000
91.5600	14103.0275
91.5700	13995.5350
91.5800	14524.8800
91.5900	14755.7725
91.6000	14581.0475
91.6100	14514.3725
91.6200	14217.2650
91.6300	14431.0825
91.6400	14329.3375
91.6500	13840.1825
91.6600	14298.9375
91.6700	14220.8150
91.6800	14440.3475
91.6900	14257.9400
91.7000	14169.6150
91.7100	14012.0050
91.7200	14299.4875
91.7300	14119.2525
91.7400	13674.8350
91.7500	13616.6675
91.7600	13700.7350
91.7700	14245.7075
91.7800	13939.6775
91.7900	13713.9650
91.8000	14308.0050
91.8100	14393.3700
91.8200	13727.6350
91.8300	13584.8625
91.8400	13783.0125
91.8500	14180.7075
91.8600	13607.6425
91.8700	14049.1425
91.8800	14190.2450
91.8900	14302.2000
91.9000	13820.5500
91.9100	13869.3075
91.9200	14008.9875
91.9300	13993.8875
91.9400	14340.9200
91.9500	14354.7500
91.9600	13973.7625
91.9700	13846.7675
91.9800	14485.1850
91.9900	14444.7950
92.0000	13948.7925
92.0100	13560.5975
92.0200	13790.5575
92.0300	13812.3050
92.0400	13485.7300
92.0500	13386.1625
92.0600	13629.2525
92.0700	14251.0025
92.0800	13890.7100
92.0900	14404.0625
92.1000	14519.8350
92.1100	13878.0100
92.1200	13125.4050
92.1300	13400.4750
92.1400	13803.2050
92.1500	13396.6150
92.1600	13533.1550
92.1700	13699.7100
92.1800	13856.5050
92.1900	13855.2850
92.2000	13238.4175
92.2100	12886.7575
92.2200	13608.5275
92.2300	14122.6875
92.2400	13710.9175
92.2500	13816.6675
92.2600	13784.3850
92.2700	13506.3450
92.2800	13912.1200
92.2900	13994.2325
92.3000	13608.9575
92.3100	13713.3350
92.3200	13927.9425
92.3300	14676.4100
92.3400	14055.8125
92.3500	13812.6650
92.3600	14231.5325
92.3700	13505.6625
92.3800	13583.5175
92.3900	13763.8800
92.4000	13748.5375
92.4100	13920.7800
92.4200	13957.1450
92.4300	13804.1250
92.4400	13306.0850
92.4500	13529.5025
92.4600	13197.4100
92.4700	14296.7825
92.4800	13877.0225
92.4900	13996.1500
92.5000	13952.5450
92.5100	13941.6975
92.5200	13479.6125
92.5300	13990.4875
92.5400	13274.5800
92.5500	13605.2600
92.5600	13855.5675
92.5700	13508.3750
92.5800	13620.2225
92.5900	13674.8900
92.6000	13817.0850
92.6100	14257.4425
92.6200	14115.0575
92.6300	13926.6300
92.6400	14720.8650
92.6500	14254.5175
92.6600	13438.2850
92.6700	14181.8425
92.6800	13728.5875
92.6900	14407.8675
92.7000	14712.8100
92.7100	13862.3100
92.7200	13088.2800
92.7300	13663.5950
92.7400	13668.3400
92.7500	14481.7050
92.7600	14699.8050
92.7700	14412.7300
92.7800	14057.1300
92.7900	13651.5700
92.8000	13957.5950
92.8100	14057.0525
92.8200	13595.3225
92.8300	13231.4975
92.8400	13212.6950
92.8500	13470.9775
92.8600	14147.5050
92.8700	14405.2500
92.8800	14491.3550
92.8900	14304.2950
92.9000	13759.9175
92.9100	13677.4850
92.9200	14476.3600
92.9300	13729.2350
92.9400	14320.0400
92.9500	14690.5575
92.9600	14137.7800
92.9700	13529.2025
92.9800	13128.8750
92.9900	13743.8250
93.0000	13959.2775
93.0100	13800.7275
93.0200	13811.6375
93.0300	13697.8775
93.0400	13629.7700
93.0500	13201.7150
93.0600	14013.9600
93.0700	13947.3325
93.0800	13877.4275
93.0900	13724.2900
93.1000	13492.3725
93.1100	13310.6325
93.1200	13594.4075
93.1300	13891.1975
93.1400	14110.1100
93.1500	14383.9175
93.1600	14379.3250
93.1700	13801.6925
93.1800	13825.6250
93.1900	13130.2625
93.2000	13557.3475
93.2100	14288.5675
93.2200	14442.2975
93.2300	14184.3975
93.2400	13687.2800
93.2500	13826.3300
93.2600	14137.7000
93.2700	13725.9275
93.2800	14032.3325
93.2900	13401.3300
93.3000	13461.6900
93.3100	13908.0350
93.3200	14212.9500
93.3300	14050.5475
93.3400	13417.6875
93.3500	14146.1700
93.3600	13984.8250
93.3700	14042.7350
93.3800	13718.4325
93.3900	13801.3750
93.4000	13876.0075
93.4100	14334.6275
93.4200	14397.4875
93.4300	14256.6300
93.4400	13719.0200
93.4500	13848.5775
93.4600	13772.1625
93.4700	14100.0000
93.4800	14099.2350
93.4900	14050.0000
93.5000	14051.4150
93.5100	14151.1300
93.5200	14219.2700
93.5300	13152.2725
93.5400	13334.3175
93.5500	13417.9775
93.5600	13534.4000
93.5700	13630.6425
93.5800	13372.2150
93.5900	13950.0000
93.6000	13947.3500
93.6100	13634.8925
93.6200	13836.9425
93.6300	14332.5575
93.6400	14212.7150
93.6500	13567.2175
93.6600	13667.4900
93.6700	13835.1550
93.6800	14249.4300
93.6900	14099.8375
93.7000	14050.4475
93.7100	14216.8775
93.7200	14317.0800
93.7300	14583.4325
93.7400	14683.0175
93.7500	13950.0950
93.7600	13550.2750
93.7700	13783.0425
93.7800	13683.5125
93.7900	13716.5875
93.8000	13400.9225
93.8100	13865.0500
93.8200	14099.0625
93.8300	13303.6550
93.8400	13250.2550
93.8500	13896.3150
93.8600	14247.8250
93.8700	14250.0000
93.8800	13886.0125
93.8900	14197.5125
93.9000	14282.6325
93.9100	14382.4400
93.9200	14234.7550
93.9300	14167.3350
93.9400	14414.0250
93.9500	13872.7725
93.9600	13817.2475
93.9700	13849.5950
93.9800	13372.8100
93.9900	13958.7200
94.0000	14311.8425
94.0100	13807.3950
94.0200	13964.1925
94.0300	13917.4350
94.0400	13982.2725
94.0500	14540.6900
94.0600	14386.1600
94.0700	13761.0725
94.0800	14060.9650
94.0900	13919.4450
94.1000	14112.8550
94.1100	14083.9850
94.1200	14426.3000
94.1300	14188.4875
94.1400	15048.0025
94.1500	14153.5375
94.1600	14557.0625
94.1700	13996.5625
94.1800	13869.3725
94.1900	13508.6900
94.2000	14280.6300
94.2100	13763.5975
94.2200	13896.2150
94.2300	14176.0400
94.2400	14053.5000
94.2500	13936.4550
94.2600	14225.1575
94.2700	14298.1500
94.2800	14219.0225
94.2900	14410.9150
94.3000	14287.2350
94.3100	13830.5525
94.3200	13218.6550
94.3300	13248.4625
94.3400	13928.1325
94.3500	14450.2700
94.3600	14321.5000
94.3700	14090.9675
94.3800	14389.4850
94.3900	14206.7375
94.4000	14280.4850
94.4100	14267.2450
94.4200	14797.3350
94.4300	14398.7750
94.4400	14174.4925
94.4500	14359.3475
94.4600	14125.9350
94.4700	14485.6050
94.4800	14307.6050
94.4900	14476.2750
94.5000	14323.1625
94.5100	14076.5300
94.5200	14642.7125
94.5300	14922.5600
94.5400	14102.0825
94.5500	14753.7100
94.5600	14495.8725
94.5700	14866.4275
94.5800	14707.8325
94.5900	14700.0000
94.6000	14540.6100
94.6100	15712.2600
94.6200	15288.9525
94.6300	15043.8400
94.6400	15224.2350
94.6500	15503.6500
94.6600	15596.1325
94.6700	15885.9450
94.6800	15788.8525
94.6900	16386.4275
94.7000	16480.1200
94.7100	16134.5025
94.7200	16227.6075
94.7300	16771.9325
94.7400	16530.8275
94.7500	16738.2350
94.7600	16702.5425
94.7700	16858.1175
94.7800	17087.9300
94.7900	17273.7700
94.8000	17141.2250
94.8100	17306.9425
94.8200	16938.0550
94.8300	17657.7775
94.8400	17999.4625
94.8500	18599.5675
94.8600	18790.8025
94.8700	18721.3000
94.8800	19062.7875
94.8900	19366.3975
94.9000	19776.3025
94.9100	20742.7075
94.9200	21789.4025
94.9300	22493.6125
94.9400	23333.5725
94.9500	24198.9050
94.9600	24563.5450
94.9700	25147.4650
94.9800	25700.2300
94.9900	27768.7075
95.0000	29355.4450
95.0100	30028.7975
95.0200	30395.0325
95.0300	31510.7500
95.0400	31567.7100
95.0500	32175.7075
95.0600	32997.1550
95.0700	32550.6975
95.0800	32750.6150
95.0900	31581.8250
95.1000	31048.0800
95.1100	30378.0125
95.1200	29305.6825
95.1300	28455.1350
95.1400	27606.5650
95.1500	26803.5475
95.1600	25102.2625
95.1700	24983.3325
95.1800	24828.0150
95.1900	25096.1275
95.2000	23549.2175
95.2100	22797.3000
95.2200	22858.5475
95.2300	22789.1650
95.2400	22752.3450
95.2500	23400.4975
95.2600	23001.0250
95.2700	23105.9475
95.2800	23147.6050
95.2900	22979.9025
95.3000	23507.6750
95.3100	23843.5750
95.3200	24422.6975
95.3300	24512.9850
95.3400	24362.3350
95.3500	23794.6175
95.3600	24629.0150
95.3700	25193.2925
95.3800	25079.2375
95.3900	24450.5250
95.4000	23938.0700
95.4100	23884.6075
95.4200	22852.4700
95.4300	22382.1600
95.4400	22672.8625
95.4500	21608.8250
95.4600	20487.3500
95.4700	19847.1400
95.4800	19692.5400
95.4900	18916.0400
95.5000	19187.4850
95.5100	18495.9425
95.5200	17191.6875
95.5300	17359.1550
95.5400	17230.1550
95.5500	16696.0500
95.5600	16833.6800
95.5700	17263.1325
95.5800	16963.4925
95.5900	16596.9475
95.6000	16643.0900
95.6100	16695.8375
95.6200	15997.3950
95.6300	16452.4675
95.6400	16072.6275
95.6500	15575.5950
95.6600	15548.5850
95.6700	15443.2675
95.6800	15509.5450
95.6900	15486.1925
95.7000	15041.6150
95.7100	15228.3950
95.7200	15356.5475
95.7300	14468.9200
95.7400	14885.2925
95.7500	15115.8025
95.7600	14494.9050
95.7700	14387.7475
95.7800	14960.5750
95.7900	14682.5850
95.8000	14285.6675
95.8100	14932.8950
95.8200	14529.7150
95.8300	14559.1600
95.8400	14187.6525
95.8500	14347.0225
95.8600	15078.7525
95.8700	14604.7475
95.8800	14020.0650
95.8900	14208.8450
95.9000	14203.0700
95.9100	14094.1150
95.9200	14340.4025
95.9300	13958.5075
95.9400	13780.6550
95.9500	14476.7225
95.9600	14836.9550
95.9700	14383.5250
95.9800	14091.8375
95.9900	14368.4450
96.0000	14445.2525
96.0100	14057.9300
96.0200	14076.9675
96.0300	14957.4225
96.0400	14733.6150
96.0500	14579.5075
96.0600	14295.6425
96.0700	13935.5125
96.0800	14065.5275
96.0900	14098.3775
96.1000	14220.3125
96.1100	13692.0850
96.1200	14084.2425
96.1300	14313.6450
96.1400	14348.3550
96.1500	14575.2600
96.1600	14705.0900
96.1700	13966.2325
96.1800	14153.4125
96.1900	14378.3350
96.2000	13770.1725
96.2100	13475.1250
96.2200	13659.8250
96.2300	13323.7350
96.2400	13283.3325
96.2500	13597.8075
96.2600	13573.4500
96.2700	14150.3700
96.2800	13692.9725
96.2900	13379.0375
96.3000	14022.9550
96.3100	14324.2575
96.3200	14200.5350
96.3300	14362.6450
96.3400	14577.5350
96.3500	13688.9875
96.3600	13523.6100
96.3700	13964.4700
96.3800	13688.3625
96.3900	13888.7025
96.4000	14095.6475
96.4100	14027.2000
96.4200	14016.6675
96.4300	13241.6775
96.4400	13164.9000
96.4500	13851.8850
96.4600	14394.9950
96.4700	13690.6825
96.4800	13555.3450
96.4900	13802.9800
96.5000	13773.8225
96.5100	13469.1900
96.5200	13745.6075
96.5300	13515.7350
96.5400	13542.7850
96.5500	14040.3575
96.5600	13802.8850
96.5700	14137.9725
96.5800	13826.9650
96.5900	13649.7275
96.6000	13870.8000
96.6100	13781.2950
96.6200	13544.1475
96.6300	13561.1600
96.6400	13655.6325
96.6500	14052.1000
96.6600	13803.5825
96.6700	13781.4850
96.6800	13205.5800
96.6900	13533.2250
96.7000	14131.2100
96.7100	13785.4825
96.7200	14295.7675
96.7300	13922.7400
96.7400	14384.4675
96.7500	13592.1175
96.7600	13764.3025
96.7700	14125.2625
96.7800	13545.8475
96.7900	13777.0100
96.8000	14097.3925
96.8100	14694.6675
96.8200	14663.2850
96.8300	13941.2475
96.8400	13599.0350
96.8500	13360.0325
96.8600	13643.2175
96.8700	14273.4700
96.8800	14158.2450
96.8900	13558.1875
96.9000	13719.2425
96.9100	13455.1725
96.9200	13033.4675
96.9300	13219.1000
96.9400	13382.5925
96.9500	13989.1850
96.9600	14081.3925
96.9700	14245.2950
96.9800	14266.6675
96.9900	14354.9750
97.0000	14101.7925
97.0100	13478.1700
97.0200	13576.5150
97.0300	14438.2900
97.0400	13932.4300
97.0500	13159.0400
97.0600	13331.2400
97.0700	13131.5325
97.0800	12953.0700
97.0900	13183.0700
97.1000	13451.6700
97.1100	12837.1900
97.1200	13660.3100
97.1300	13431.0175
97.1400	13427.3650
97.1500	13697.4750
97.1600	13454.5650
97.1700	14282.1625
97.1800	14091.9950
97.1900	13947.3500
97.2000	14109.2750
97.2100	14162.6525
97.2200	13726.9625
97.2300	13446.8525
97.2400	13621.7925
97.2500	13444.9075
97.2600	13475.2550
97.2700	13366.1775
97.2800	13613.5575
97.2900	14074.5525
97.3000	14118.6950
97.3100	14028.8575
97.3200	14148.3600
97.3300	13552.1925
97.3400	13671.4575
97.3500	13144.2225
97.3600	13286.0175
97.3700	13404.3925
97.3800	13709.0450
97.3900	13633.0675
97.4000	13587.4375
97.4100	13963.2500
97.4200	13534.5375
97.4300	13802.6475
97.4400	13996.0575
97.4500	13374.1125
97.4600	13706.7725
97.4700	14496.6275
97.4800	14366.4475
97.4900	14172.7875
97.5000	14252.1500
97.5100	13945.6675
97.5200	13258.0925
97.5300	14085.6325
97.5400	13779.1250
97.5500	13322.9325
97.5600	13295.8275
97.5700	13474.9450
97.5800	13631.1900
97.5900	13970.6450
97.6000	14497.5700
97.6100	14391.8150
97.6200	14250.1150
97.6300	13577.8150
97.6400	13439.6375
97.6500	13375.0800
97.6600	13439.4750
97.6700	13318.9625
97.6800	13431.0200
97.6900	14032.2375
97.7000	14320.4250
97.7100	14408.2100
97.7200	13951.0500
97.7300	13737.8450
97.7400	13847.5900
97.7500	14099.3900
97.7600	13711.5700
97.7700	13679.0825
97.7800	13479.7725
97.7900	13508.1525
97.8000	13458.5200
97.8100	13668.0275
97.8200	13758.1350
97.8300	13359.7775
97.8400	13488.8925
97.8500	14054.2225
97.8600	13653.9425
97.8700	13336.4025
97.8800	13997.1425
97.8900	13925.7325
97.9000	13754.7925
97.9100	13660.7375
97.9200	13388.6825
97.9300	13335.4850
97.9400	14015.5200
97.9500	14044.1000
97.9600	14265.5200
97.9700	14256.4700
97.9800	13640.6325
97.9900	13782.1175
98.0000	13657.1025
98.0100	13879.9100
98.0200	13278.5325
98.0300	13386.3575
98.0400	13532.6700
98.0500	14057.4625
98.0600	13625.9175
98.0700	14086.3600
98.0800	13673.8400
98.0900	13614.4925
98.1000	13906.5125
98.1100	14007.9650
98.1200	13828.3000
98.1300	13843.4650
98.1400	13603.7175
98.1500	13305.9200
98.1600	13078.3650
98.1700	14063.8450
98.1800	13999.4325
98.1900	13691.5250
98.2000	13867.1975
98.2100	13624.9050
98.2200	13380.6475
98.2300	13596.1000
98.2400	13850.4625
98.2500	14129.3925
98.2600	13819.3150
98.2700	13896.9150
98.2800	13598.3100
98.2900	13680.2275
98.3000	13352.7525
98.3100	13271.0650
98.3200	13744.0625
98.3300	13802.2000
98.3400	13496.2475
98.3500	13464.4625
98.3600	13524.5175
98.3700	13677.9475
98.3800	13671.0800
98.3900	13565.4500
98.4000	13578.9175
98.4100	13539.9600
98.4200	13229.7450
98.4300	13790.4725
98.4400	13724.3300
98.4500	13902.3550
98.4600	13832.1625
98.4700	14004.5425
98.4800	13614.2500
98.4900	13260.9925
98.5000	13462.3075
98.5100	13500.0000
98.5200	13485.5525
98.5300	13512.2275
98.5400	13661.1275
98.5500	13336.6450
98.5600	13297.7775
98.5700	13819.9750
98.5800	14203.3025
98.5900	13903.3875
98.6000	13229.0175
98.6100	13032.2475
98.6200	13233.2650
98.6300	13324.4225
98.6400	12929.0550
98.6500	12895.5425
98.6600	13520.7975
98.6700	13847.6500
98.6800	13190.4175
98.6900	13083.3325
98.7000	13516.3675
98.7100	14074.0825
98.7200	14496.3950
98.7300	14420.1075
98.7400	13447.4950
98.7500	13227.8425
98.7600	13750.6025
98.7700	13804.4725
98.7800	14059.7325
98.7900	13638.2725
98.8000	13566.6675
98.8100	13465.6725
98.8200	13882.8200
98.8300	13488.3425
98.8400	13113.7150
98.8500	13254.2000
98.8600	13442.0100
98.8700	13856.1350
98.8800	13556.0600
98.8900	13947.1350
98.9000	13958.9725
98.9100	13589.4300
98.9200	13230.4650
98.9300	13284.2875
98.9400	13501.9000
98.9500	13706.3850
98.9600	13488.1825
98.9700	13507.6800
98.9800	13257.1100
98.9900	13605.9925
99.0000	13868.5325
99.0100	13510.6950
99.0200	13767.2025
99.0300	13845.5025
99.0400	13532.8125
99.0500	14319.5350
99.0600	14320.2475
99.0700	13276.4225
99.0800	14053.7250
99.0900	14243.2475
99.1000	13702.2050
99.1100	13731.9900
99.1200	13750.0000
99.1300	14009.4675
99.1400	13963.5125
99.1500	13719.3700
99.1600	13640.0900
99.1700	13489.1950
99.1800	13740.5250
99.1900	13639.2000
99.2000	13731.9725
99.2100	13605.8700
99.2200	13237.4275
99.2300	12995.9700
99.2400	12937.8425
99.2500	13754.8250
99.2600	13436.5625
99.2700	13510.7850
99.2800	12985.6900
99.2900	13361.1675
99.3000	13116.2825
99.3100	13311.6575
99.3200	13177.0675
99.3300	13539.0950
99.3400	13398.2475
99.3500	13107.2725
99.3600	13628.6825
99.3700	13846.3625
99.3800	13333.4800
99.3900	13264.4100
99.4000	13655.7450
99.4100	13831.9475
99.4200	13648.2575
99.4300	13847.2300
99.4400	13407.8000
99.4500	13837.6850
99.4600	14132.8175
99.4700	13964.9275
99.4800	13962.1525
99.4900	13375.8575
99.5000	13859.7325
99.5100	13892.3600
99.5200	14056.2525
99.5300	14097.7425
99.5400	13682.1075
99.5500	13760.7675
99.5600	14114.7650
99.5700	13950.5150
99.5800	13340.2575
99.5900	12947.3850
99.6000	13260.2575
99.6100	13316.6675
99.6200	13316.6675
99.6300	14066.0150
99.6400	13938.3525
99.6500	13698.2500
99.6600	13709.9000
99.6700	13731.0775
99.6800	13358.6450
99.6900	13011.7775
99.7000	12822.5525
99.7100	13160.2850
99.7200	13821.9525
99.7300	13844.6075
99.7400	13530.6850
99.7500	13483.3325
99.7600	13814.8125
99.7700	13621.6575
99.7800	13741.8700
99.7900	13939.6200
99.8000	13606.3450
99.8100	13232.9125
99.8200	13442.7725
99.8300	13973.3900
99.8400	13949.1050
99.8500	13457.6750
99.8600	13224.7775
99.8700	13401.8000
99.8800	13548.6500
99.8900	14172.0875
99.9000	13560.3325
99.9100	13507.6600
99.9200	13718.4825
99.9300	13577.0100
99.9400	14083.3925
99.9500	13863.9250
99.9600	13542.7525
99.9700	13500.0000
99.9800	13500.0000
99.9900	13500.0000
100.0000	13500.0000
