*FILE_COMMENT	""
*FILE_MD5	""
*FILE_MEMO	"Niフィルター"
*FILE_OPERATOR	"Administrator"
*FILE_PACKAGE_NAME	""
*FILE_PART_ID	"GeneralMeasurement"
*FILE_SAMPLE	"Fe"
*FILE_SYSTEM_NAME	"MiniFlex"
*FILE_TYPE	"RAS_RAW"
*FILE_USERGROUP	"Administrators"
*FILE_VERSION	"1"
*HW_ATTACHMENT_NAME_INTERNAL	"StandardSampleHolder"
*HW_COUNTER_ID-0	"CUT0025"
*HW_COUNTER_ID-2	"CMC0020"
*HW_COUNTER_MONOCHRO_ID	"CMC0020"
*HW_COUNTER_MONOCHRO_NAME	"None"
*HW_COUNTER_MONOCHRO_NAME_INTERNAL	"None"
*HW_COUNTER_NAME_INTERNAL	"DteX100"
*HW_COUNTER_NAME-0	"DteX100"
*HW_COUNTER_NAME-1	"None"
*HW_COUNTER_NAME-2	"None"
*HW_COUNTER_PIXEL_SIZE	"0.1"
*HW_COUNTER_SELECT_NAME	"DteX100"
*HW_GONIOMETER_ID	"GON0021"
*HW_GONIOMETER_NAME	"Standard"
*HW_GONIOMETER_NAME_INTERNAL	"Standard"
*HW_GONIOMETER_RADIUS-0	"90.0"
*HW_GONIOMETER_RADIUS-1	"114.0"
*HW_GONIOMETER_RADIUS-2	"91.5"
*HW_GONIOMETER_RADIUS-3	"150.0"
*HW_GONIOMETER_RADIUS-4	"103.4"
*HW_GONIOMETER_RADIUS-5	"150.0"
*HW_GONIOMETER_RADIUS-6	"46.6"
*HW_GONIOMETER_RADIUS-7	"150.0"
*HW_I_CBO_ID	"CBO0020"
*HW_I_CBO_NAME	"No_unit"
*HW_I_CBO_NAME_INTERNAL	"No_unit"
*HW_I_MONOCHRO_NAME_INTERNAL	"Manual"
*HW_I_OPT_ID-1	"CBO0020"
*HW_I_PRIMARY_NAME_INTERNAL	"No_unit"
*HW_I_SLIT_NAME_INTERNAL	"Manual"
*HW_R_ATTENUATER_AUTOMODE	"0"
*HW_R_ATTENUATER_ID	"ATN0020"
*HW_R_ATTENUATER_NAME	"No_unit"
*HW_R_ATTENUATOR_NAME_INTERNAL	"No_unit"
*HW_R_OPT_ID-1	"RCR0023"
*HW_R_OPT_ID-4	"ATN0020"
*HW_R_ROD_ID	"RCR0023"
*HW_R_ROD_NAME	"No_unit"
*HW_R_ROD_NAME_INTERNAL	"No_unit"
*HW_R_RPS_NAME_INTERNAL	"Manual"
*HW_R_RS_NAME_INTERNAL	"Manual"
*HW_R_SS_NAME_INTERNAL	"Manual"
*HW_SAMPLE_HOLDER_NAME_INTERNAL	"None"
*HW_SAMPLE_NAME	"None"
*HW_SAMPLE_NAME_INTERNAL	"None"
*HW_SAMPLE_PLATE_NAME	"None"
*HW_SAMPLE_PLATE_NAME_INTERNAL	"None"
*HW_SAMPLE_SPACER_NAME	"None"
*HW_SAMPLE_SPACER_NAME_INTERNAL	"None"
*HW_USERINFO_CATALOG_NO	""
*HW_USERINFO_INSTRUMENT_ID	""
*HW_USERINFO_INSTRUMENT_NAME	""
*HW_USERINFO_INSTRUMENT_NO	""
*HW_USERINFO_MODEL	""
*HW_USERINFO_ORDER_NO	""
*HW_USERINFO_SERIAL_NO	""
*HW_USERINFO_VERIFY_INSTRUMENT_ID	"00-07-fe-03-07-9c"
*HW_VER_RCD_COUNTER_UNIT	"N/A"
*HW_VER_RCD_CPU	"10.1.3"
*HW_VER_RCD_FPGA	"4.0.4"
*HW_VER_RCD_GONIO_UNIT	"0.0.0"
*HW_VER_RCD_INCIDENT_UNIT	"0.0.0"
*HW_VER_RCD_RECEIVING_UNIT	"0.0.0"
*HW_VER_RCD_TYPE	"RINCII"
*HW_VER_XGC_CPU	"10.1.3"
*HW_VER_XGC_CW	"5.5.6"
*HW_VER_XGC_HV	"5.5.6"
*HW_VER_XGC_RS1	"5.5.6"
*HW_VER_XGC_RS2	"N/A"
*HW_VER_XGC_RT	"N/A"
*HW_VER_XGC_TYPE	"RINCII"
*HW_XG_CURRENT_UNIT	"mA"
*HW_XG_FOCUS	"0.4mm x 12mm"
*HW_XG_FOCUS_TYPE	"LongFineToshiba"
*HW_XG_TARGET_ATOMIC_NUMBER	"29"
*HW_XG_TARGET_NAME	"Cu"
*HW_XG_TYPE	"Hermetic"
*HW_XG_VOLTAGE_UNIT	"kV"
*HW_XG_WAVE_LENGTH_ALPHA1	"1.540593"
*HW_XG_WAVE_LENGTH_ALPHA2	"1.544414"
*HW_XG_WAVE_LENGTH_BETA	"1.392246"
*HW_XG_WAVE_LENGTH_UNIT	"Angstrom"
*MEAS_COND_AXIS_NAME_INTERNAL-0	"TwoThetaTheta"
*MEAS_COND_AXIS_NAME_INTERNAL-1	"IncidentSollerSlit"
*MEAS_COND_AXIS_NAME_INTERNAL-10	"ReceivingSlitBox1"
*MEAS_COND_AXIS_NAME_INTERNAL-11	"ReceivingSlitBox1"
*MEAS_COND_AXIS_NAME_INTERNAL-12	"Filter"
*MEAS_COND_AXIS_NAME_INTERNAL-13	"ReceivingSollerSlit"
*MEAS_COND_AXIS_NAME_INTERNAL-14	"ReceivingSlitBox2"
*MEAS_COND_AXIS_NAME_INTERNAL-15	"ReceivingSlitBox2"
*MEAS_COND_AXIS_NAME_INTERNAL-16	"ReceivingSlitBox2"
*MEAS_COND_AXIS_NAME_INTERNAL-17	"PHA"
*MEAS_COND_AXIS_NAME_INTERNAL-18	"RS3"
*MEAS_COND_AXIS_NAME_INTERNAL-19	"Target_TargetTime"
*MEAS_COND_AXIS_NAME_INTERNAL-2	"IncidentSlitBox"
*MEAS_COND_AXIS_NAME_INTERNAL-20	"Target_XrayOnTime"
*MEAS_COND_AXIS_NAME_INTERNAL-21	"Target_IG"
*MEAS_COND_AXIS_NAME_INTERNAL-22	"Target_GP"
*MEAS_COND_AXIS_NAME_INTERNAL-23	"Target_FC"
*MEAS_COND_AXIS_NAME_INTERNAL-24	"HVPS_Bias"
*MEAS_COND_AXIS_NAME_INTERNAL-25	"HVPS_HVPSTime"
*MEAS_COND_AXIS_NAME_INTERNAL-26	"HVPS_Type1Time"
*MEAS_COND_AXIS_NAME_INTERNAL-27	"HVPS_Type2Time"
*MEAS_COND_AXIS_NAME_INTERNAL-28	"HVPS_Type3Time"
*MEAS_COND_AXIS_NAME_INTERNAL-29	"CW_IERTime"
*MEAS_COND_AXIS_NAME_INTERNAL-3	"IncidentSlitBox"
*MEAS_COND_AXIS_NAME_INTERNAL-30	"CW_WaterHose"
*MEAS_COND_AXIS_NAME_INTERNAL-31	"CW_CoolingWater"
*MEAS_COND_AXIS_NAME_INTERNAL-32	"CW_ECTime"
*MEAS_COND_AXIS_NAME_INTERNAL-33	"CW_Flow1"
*MEAS_COND_AXIS_NAME_INTERNAL-34	"CW_Temperature1"
*MEAS_COND_AXIS_NAME_INTERNAL-35	"CW_Pressure1"
*MEAS_COND_AXIS_NAME_INTERNAL-36	"CW_PressureIn"
*MEAS_COND_AXIS_NAME_INTERNAL-37	"CW_PressureOut"
*MEAS_COND_AXIS_NAME_INTERNAL-38	"CW_Flow2"
*MEAS_COND_AXIS_NAME_INTERNAL-39	"CW_Temperature2"
*MEAS_COND_AXIS_NAME_INTERNAL-4	"IncidentSlitBox"
*MEAS_COND_AXIS_NAME_INTERNAL-40	"CW_Pressure2"
*MEAS_COND_AXIS_NAME_INTERNAL-41	"RE_EnclosureTemp"
*MEAS_COND_AXIS_NAME_INTERNAL-42	"RE_EnclosureHummidity"
*MEAS_COND_AXIS_NAME_INTERNAL-43	"RE_CabinetTemp"
*MEAS_COND_AXIS_NAME_INTERNAL-44	"RE_RPTemp"
*MEAS_COND_AXIS_NAME_INTERNAL-45	"RE_ShutterAXrayOnTime"
*MEAS_COND_AXIS_NAME_INTERNAL-46	"RE_ShutterATimes"
*MEAS_COND_AXIS_NAME_INTERNAL-47	"RE_ShutterAOpenCloseTime"
*MEAS_COND_AXIS_NAME_INTERNAL-48	"RE_ShutterACloseOpenTime"
*MEAS_COND_AXIS_NAME_INTERNAL-49	"RE_ShutterBXrayOnTime"
*MEAS_COND_AXIS_NAME_INTERNAL-5	"IncidentAxdSlit"
*MEAS_COND_AXIS_NAME_INTERNAL-50	"RE_ShutterBTimes"
*MEAS_COND_AXIS_NAME_INTERNAL-51	"RE_ShutterBOpenCloseTime"
*MEAS_COND_AXIS_NAME_INTERNAL-52	"RE_ShutterBCloseOpenTime"
*MEAS_COND_AXIS_NAME_INTERNAL-53	"RE_XrayWarningRamp"
*MEAS_COND_AXIS_NAME_INTERNAL-54	"RE_ShutterAInstallation"
*MEAS_COND_AXIS_NAME_INTERNAL-55	"RE_ShutterARamp"
*MEAS_COND_AXIS_NAME_INTERNAL-56	"RE_ShutterBInstallation"
*MEAS_COND_AXIS_NAME_INTERNAL-57	"RE_ShutterBRamp"
*MEAS_COND_AXIS_NAME_INTERNAL-58	"RE_ExtShutterCLS"
*MEAS_COND_AXIS_NAME_INTERNAL-59	"RE_ExtXrayOFF"
*MEAS_COND_AXIS_NAME_INTERNAL-6	"IncidentAxdSlit"
*MEAS_COND_AXIS_NAME_INTERNAL-60	"RE_ExtSafetyCircuit"
*MEAS_COND_AXIS_NAME_INTERNAL-61	"Version_CPU"
*MEAS_COND_AXIS_NAME_INTERNAL-62	"Version_RS1"
*MEAS_COND_AXIS_NAME_INTERNAL-63	"Version_RS2"
*MEAS_COND_AXIS_NAME_INTERNAL-64	"Version_HV"
*MEAS_COND_AXIS_NAME_INTERNAL-65	"Version_CW"
*MEAS_COND_AXIS_NAME_INTERNAL-66	"Version_RT"
*MEAS_COND_AXIS_NAME_INTERNAL-67	"IncidentPrimary"
*MEAS_COND_AXIS_NAME_INTERNAL-68	"IncidentMonochromator"
*MEAS_COND_AXIS_NAME_INTERNAL-69	"ReceivingOptics"
*MEAS_COND_AXIS_NAME_INTERNAL-7	"IncidentAxdSlit"
*MEAS_COND_AXIS_NAME_INTERNAL-70	"CounterMonochromatorKind"
*MEAS_COND_AXIS_NAME_INTERNAL-8	"Filter"
*MEAS_COND_AXIS_NAME_INTERNAL-9	"ReceivingSlitBox1"
*MEAS_COND_AXIS_NAME-0	"TwoThetaTheta"
*MEAS_COND_AXIS_NAME-1	"IncidentSollerSlit"
*MEAS_COND_AXIS_NAME-10	"ReceivingSlitBox1-_Axis"
*MEAS_COND_AXIS_NAME-11	"SlitSS"
*MEAS_COND_AXIS_NAME-12	"Filter"
*MEAS_COND_AXIS_NAME-13	"ReceivingSollerSlit"
*MEAS_COND_AXIS_NAME-14	"ReceivingSlitBox2"
*MEAS_COND_AXIS_NAME-15	"ReceivingSlitBox2-_Axis"
*MEAS_COND_AXIS_NAME-16	"SlitRS"
*MEAS_COND_AXIS_NAME-17	"PHA"
*MEAS_COND_AXIS_NAME-18	"RS3"
*MEAS_COND_AXIS_NAME-19	"Target_TargetTime"
*MEAS_COND_AXIS_NAME-2	"IncidentSlitBox"
*MEAS_COND_AXIS_NAME-20	"Target_XrayOnTime"
*MEAS_COND_AXIS_NAME-21	"Target_IG"
*MEAS_COND_AXIS_NAME-22	"Target_GP"
*MEAS_COND_AXIS_NAME-23	"Target_FC"
*MEAS_COND_AXIS_NAME-24	"HVPS_Bias"
*MEAS_COND_AXIS_NAME-25	"HVPS_HVPSTime"
*MEAS_COND_AXIS_NAME-26	"HVPS_Type1Time"
*MEAS_COND_AXIS_NAME-27	"HVPS_Type2Time"
*MEAS_COND_AXIS_NAME-28	"HVPS_Type3Time"
*MEAS_COND_AXIS_NAME-29	"CW_IERTime"
*MEAS_COND_AXIS_NAME-3	"IncidentSlitBox-_Axis"
*MEAS_COND_AXIS_NAME-30	"CW_WaterHose"
*MEAS_COND_AXIS_NAME-31	"CW_CoolingWater"
*MEAS_COND_AXIS_NAME-32	"CW_ECTime"
*MEAS_COND_AXIS_NAME-33	"CW_Flow1"
*MEAS_COND_AXIS_NAME-34	"CW_Temperature1"
*MEAS_COND_AXIS_NAME-35	"CW_Pressure1"
*MEAS_COND_AXIS_NAME-36	"CW_PressureIn"
*MEAS_COND_AXIS_NAME-37	"CW_PressureOut"
*MEAS_COND_AXIS_NAME-38	"CW_Flow2"
*MEAS_COND_AXIS_NAME-39	"CW_Temperature2"
*MEAS_COND_AXIS_NAME-4	"SlitDS"
*MEAS_COND_AXIS_NAME-40	"CW_Pressure2"
*MEAS_COND_AXIS_NAME-41	"RE_EnclosureTemp"
*MEAS_COND_AXIS_NAME-42	"RE_EnclosureHummidity"
*MEAS_COND_AXIS_NAME-43	"RE_CabinetTemp"
*MEAS_COND_AXIS_NAME-44	"RE_RPTemp"
*MEAS_COND_AXIS_NAME-45	"RE_ShutterAXrayOnTime"
*MEAS_COND_AXIS_NAME-46	"RE_ShutterATimes"
*MEAS_COND_AXIS_NAME-47	"RE_ShutterAOpenCloseTime"
*MEAS_COND_AXIS_NAME-48	"RE_ShutterACloseOpenTime"
*MEAS_COND_AXIS_NAME-49	"RE_ShutterBXrayOnTime"
*MEAS_COND_AXIS_NAME-5	"IncidentAxdSlit"
*MEAS_COND_AXIS_NAME-50	"RE_ShutterBTimes"
*MEAS_COND_AXIS_NAME-51	"RE_ShutterBOpenCloseTime"
*MEAS_COND_AXIS_NAME-52	"RE_ShutterBCloseOpenTime"
*MEAS_COND_AXIS_NAME-53	"RE_XrayWarningRamp"
*MEAS_COND_AXIS_NAME-54	"RE_ShutterAInstallation"
*MEAS_COND_AXIS_NAME-55	"RE_ShutterARamp"
*MEAS_COND_AXIS_NAME-56	"RE_ShutterBInstallation"
*MEAS_COND_AXIS_NAME-57	"RE_ShutterBRamp"
*MEAS_COND_AXIS_NAME-58	"RE_ExtShutterCLS"
*MEAS_COND_AXIS_NAME-59	"RE_ExtXrayOFF"
*MEAS_COND_AXIS_NAME-6	"LLS"
*MEAS_COND_AXIS_NAME-60	"RE_ExtSafetyCircuit"
*MEAS_COND_AXIS_NAME-61	"Version_CPU"
*MEAS_COND_AXIS_NAME-62	"Version_RS1"
*MEAS_COND_AXIS_NAME-63	"Version_RS2"
*MEAS_COND_AXIS_NAME-64	"Version_HV"
*MEAS_COND_AXIS_NAME-65	"Version_CW"
*MEAS_COND_AXIS_NAME-66	"Version_RT"
*MEAS_COND_AXIS_NAME-67	"IncidentPrimary"
*MEAS_COND_AXIS_NAME-68	"IncidentMonochromator"
*MEAS_COND_AXIS_NAME-69	"ReceivingOptics"
*MEAS_COND_AXIS_NAME-7	"DHLSlit"
*MEAS_COND_AXIS_NAME-70	"CounterMonochromatorKind"
*MEAS_COND_AXIS_NAME-8	"Filter"
*MEAS_COND_AXIS_NAME-9	"ReceivingSlitBox1"
*MEAS_COND_AXIS_OFFSET-0	"0"
*MEAS_COND_AXIS_OFFSET-1	"0"
*MEAS_COND_AXIS_OFFSET-10	"0"
*MEAS_COND_AXIS_OFFSET-11	"0"
*MEAS_COND_AXIS_OFFSET-12	"0"
*MEAS_COND_AXIS_OFFSET-13	"0"
*MEAS_COND_AXIS_OFFSET-14	"0"
*MEAS_COND_AXIS_OFFSET-15	"0"
*MEAS_COND_AXIS_OFFSET-16	"0"
*MEAS_COND_AXIS_OFFSET-17	"0"
*MEAS_COND_AXIS_OFFSET-18	"0"
*MEAS_COND_AXIS_OFFSET-19	"0"
*MEAS_COND_AXIS_OFFSET-2	"0"
*MEAS_COND_AXIS_OFFSET-20	"0"
*MEAS_COND_AXIS_OFFSET-21	"0"
*MEAS_COND_AXIS_OFFSET-22	"0"
*MEAS_COND_AXIS_OFFSET-23	"0"
*MEAS_COND_AXIS_OFFSET-24	"0"
*MEAS_COND_AXIS_OFFSET-25	"0"
*MEAS_COND_AXIS_OFFSET-26	"0"
*MEAS_COND_AXIS_OFFSET-27	"0"
*MEAS_COND_AXIS_OFFSET-28	"0"
*MEAS_COND_AXIS_OFFSET-29	"0"
*MEAS_COND_AXIS_OFFSET-3	"0"
*MEAS_COND_AXIS_OFFSET-30	"0"
*MEAS_COND_AXIS_OFFSET-31	"0"
*MEAS_COND_AXIS_OFFSET-32	"0"
*MEAS_COND_AXIS_OFFSET-33	"0"
*MEAS_COND_AXIS_OFFSET-34	"0"
*MEAS_COND_AXIS_OFFSET-35	"0"
*MEAS_COND_AXIS_OFFSET-36	"0"
*MEAS_COND_AXIS_OFFSET-37	"0"
*MEAS_COND_AXIS_OFFSET-38	"0"
*MEAS_COND_AXIS_OFFSET-39	"0"
*MEAS_COND_AXIS_OFFSET-4	"0"
*MEAS_COND_AXIS_OFFSET-40	"0"
*MEAS_COND_AXIS_OFFSET-41	"0"
*MEAS_COND_AXIS_OFFSET-42	"0"
*MEAS_COND_AXIS_OFFSET-43	"0"
*MEAS_COND_AXIS_OFFSET-44	"0"
*MEAS_COND_AXIS_OFFSET-45	"0"
*MEAS_COND_AXIS_OFFSET-46	"0"
*MEAS_COND_AXIS_OFFSET-47	"0"
*MEAS_COND_AXIS_OFFSET-48	"0"
*MEAS_COND_AXIS_OFFSET-49	"0"
*MEAS_COND_AXIS_OFFSET-5	"0"
*MEAS_COND_AXIS_OFFSET-50	"0"
*MEAS_COND_AXIS_OFFSET-51	"0"
*MEAS_COND_AXIS_OFFSET-52	"0"
*MEAS_COND_AXIS_OFFSET-53	"0"
*MEAS_COND_AXIS_OFFSET-54	"0"
*MEAS_COND_AXIS_OFFSET-55	"0"
*MEAS_COND_AXIS_OFFSET-56	"0"
*MEAS_COND_AXIS_OFFSET-57	"0"
*MEAS_COND_AXIS_OFFSET-58	"0"
*MEAS_COND_AXIS_OFFSET-59	"0"
*MEAS_COND_AXIS_OFFSET-6	"0"
*MEAS_COND_AXIS_OFFSET-60	"0"
*MEAS_COND_AXIS_OFFSET-61	"0"
*MEAS_COND_AXIS_OFFSET-62	"0"
*MEAS_COND_AXIS_OFFSET-63	"0"
*MEAS_COND_AXIS_OFFSET-64	"0"
*MEAS_COND_AXIS_OFFSET-65	"0"
*MEAS_COND_AXIS_OFFSET-66	"0"
*MEAS_COND_AXIS_OFFSET-67	"0"
*MEAS_COND_AXIS_OFFSET-68	"0"
*MEAS_COND_AXIS_OFFSET-69	"0"
*MEAS_COND_AXIS_OFFSET-7	"0"
*MEAS_COND_AXIS_OFFSET-70	"0"
*MEAS_COND_AXIS_OFFSET-8	"0"
*MEAS_COND_AXIS_OFFSET-9	"0"
*MEAS_COND_AXIS_POSITION-0	"12.0000"
*MEAS_COND_AXIS_POSITION-1	"Soller_slit_2.5deg"
*MEAS_COND_AXIS_POSITION-10	"8.0mm"
*MEAS_COND_AXIS_POSITION-11	"8.0mm"
*MEAS_COND_AXIS_POSITION-12	"K_beta_x1.5"
*MEAS_COND_AXIS_POSITION-13	"Soller_slit_2.5deg"
*MEAS_COND_AXIS_POSITION-14	"Open"
*MEAS_COND_AXIS_POSITION-15	"Open"
*MEAS_COND_AXIS_POSITION-16	"Open"
*MEAS_COND_AXIS_POSITION-17	"36"
*MEAS_COND_AXIS_POSITION-18	"Open"
*MEAS_COND_AXIS_POSITION-19	""
*MEAS_COND_AXIS_POSITION-2	"1.25deg"
*MEAS_COND_AXIS_POSITION-20	"18.966667"
*MEAS_COND_AXIS_POSITION-21	"0.000000"
*MEAS_COND_AXIS_POSITION-22	""
*MEAS_COND_AXIS_POSITION-23	"0.000000"
*MEAS_COND_AXIS_POSITION-24	"0.000000"
*MEAS_COND_AXIS_POSITION-25	""
*MEAS_COND_AXIS_POSITION-26	""
*MEAS_COND_AXIS_POSITION-27	""
*MEAS_COND_AXIS_POSITION-28	""
*MEAS_COND_AXIS_POSITION-29	"0.000000"
*MEAS_COND_AXIS_POSITION-3	"1.25deg"
*MEAS_COND_AXIS_POSITION-30	""
*MEAS_COND_AXIS_POSITION-31	""
*MEAS_COND_AXIS_POSITION-32	""
*MEAS_COND_AXIS_POSITION-33	"4.350000"
*MEAS_COND_AXIS_POSITION-34	"0.000000"
*MEAS_COND_AXIS_POSITION-35	"0.000000"
*MEAS_COND_AXIS_POSITION-36	""
*MEAS_COND_AXIS_POSITION-37	""
*MEAS_COND_AXIS_POSITION-38	"0.000000"
*MEAS_COND_AXIS_POSITION-39	"0.000000"
*MEAS_COND_AXIS_POSITION-4	"1.25deg"
*MEAS_COND_AXIS_POSITION-40	"0.000000"
*MEAS_COND_AXIS_POSITION-41	"0.000000"
*MEAS_COND_AXIS_POSITION-42	""
*MEAS_COND_AXIS_POSITION-43	"38.000000"
*MEAS_COND_AXIS_POSITION-44	""
*MEAS_COND_AXIS_POSITION-45	""
*MEAS_COND_AXIS_POSITION-46	""
*MEAS_COND_AXIS_POSITION-47	""
*MEAS_COND_AXIS_POSITION-48	""
*MEAS_COND_AXIS_POSITION-49	""
*MEAS_COND_AXIS_POSITION-5	"10mm"
*MEAS_COND_AXIS_POSITION-50	"74.000000"
*MEAS_COND_AXIS_POSITION-51	"32.000000"
*MEAS_COND_AXIS_POSITION-52	"23.000000"
*MEAS_COND_AXIS_POSITION-53	""
*MEAS_COND_AXIS_POSITION-54	"OFF"
*MEAS_COND_AXIS_POSITION-55	""
*MEAS_COND_AXIS_POSITION-56	"ON"
*MEAS_COND_AXIS_POSITION-57	""
*MEAS_COND_AXIS_POSITION-58	""
*MEAS_COND_AXIS_POSITION-59	""
*MEAS_COND_AXIS_POSITION-6	"10mm"
*MEAS_COND_AXIS_POSITION-60	"CLOSE"
*MEAS_COND_AXIS_POSITION-61	"10.1.3"
*MEAS_COND_AXIS_POSITION-62	"5.5.6"
*MEAS_COND_AXIS_POSITION-63	"N/A"
*MEAS_COND_AXIS_POSITION-64	"5.5.6"
*MEAS_COND_AXIS_POSITION-65	"5.5.6"
*MEAS_COND_AXIS_POSITION-66	"N/A"
*MEAS_COND_AXIS_POSITION-67	"No_unit"
*MEAS_COND_AXIS_POSITION-68	"Manual"
*MEAS_COND_AXIS_POSITION-69	"No_unit"
*MEAS_COND_AXIS_POSITION-7	"10mm"
*MEAS_COND_AXIS_POSITION-70	"None"
*MEAS_COND_AXIS_POSITION-8	"None"
*MEAS_COND_AXIS_POSITION-9	"8.0mm"
*MEAS_COND_AXIS_RESOLUTION-0	"0.0025"
*MEAS_COND_AXIS_RESOLUTION-1	""
*MEAS_COND_AXIS_RESOLUTION-10	""
*MEAS_COND_AXIS_RESOLUTION-11	""
*MEAS_COND_AXIS_RESOLUTION-12	""
*MEAS_COND_AXIS_RESOLUTION-13	""
*MEAS_COND_AXIS_RESOLUTION-14	""
*MEAS_COND_AXIS_RESOLUTION-15	""
*MEAS_COND_AXIS_RESOLUTION-16	""
*MEAS_COND_AXIS_RESOLUTION-17	"1"
*MEAS_COND_AXIS_RESOLUTION-18	"0.1"
*MEAS_COND_AXIS_RESOLUTION-19	"0.01"
*MEAS_COND_AXIS_RESOLUTION-2	""
*MEAS_COND_AXIS_RESOLUTION-20	"0.010000"
*MEAS_COND_AXIS_RESOLUTION-21	"1"
*MEAS_COND_AXIS_RESOLUTION-22	"1"
*MEAS_COND_AXIS_RESOLUTION-23	"0.01"
*MEAS_COND_AXIS_RESOLUTION-24	"1"
*MEAS_COND_AXIS_RESOLUTION-25	"0.01"
*MEAS_COND_AXIS_RESOLUTION-26	"0.01"
*MEAS_COND_AXIS_RESOLUTION-27	"0.01"
*MEAS_COND_AXIS_RESOLUTION-28	"0.01"
*MEAS_COND_AXIS_RESOLUTION-29	"0.010000"
*MEAS_COND_AXIS_RESOLUTION-3	""
*MEAS_COND_AXIS_RESOLUTION-30	"0.01"
*MEAS_COND_AXIS_RESOLUTION-31	"0.01"
*MEAS_COND_AXIS_RESOLUTION-32	"1"
*MEAS_COND_AXIS_RESOLUTION-33	"0.100000"
*MEAS_COND_AXIS_RESOLUTION-34	"1.000000"
*MEAS_COND_AXIS_RESOLUTION-35	"0.010000"
*MEAS_COND_AXIS_RESOLUTION-36	"0.01"
*MEAS_COND_AXIS_RESOLUTION-37	"0.01"
*MEAS_COND_AXIS_RESOLUTION-38	"0.1"
*MEAS_COND_AXIS_RESOLUTION-39	"1"
*MEAS_COND_AXIS_RESOLUTION-4	""
*MEAS_COND_AXIS_RESOLUTION-40	"0.01"
*MEAS_COND_AXIS_RESOLUTION-41	"1.000000"
*MEAS_COND_AXIS_RESOLUTION-42	"1"
*MEAS_COND_AXIS_RESOLUTION-43	"1.000000"
*MEAS_COND_AXIS_RESOLUTION-44	"1"
*MEAS_COND_AXIS_RESOLUTION-45	"0.01"
*MEAS_COND_AXIS_RESOLUTION-46	"1"
*MEAS_COND_AXIS_RESOLUTION-47	"1"
*MEAS_COND_AXIS_RESOLUTION-48	"1"
*MEAS_COND_AXIS_RESOLUTION-49	"0.01"
*MEAS_COND_AXIS_RESOLUTION-5	""
*MEAS_COND_AXIS_RESOLUTION-50	"1.000000"
*MEAS_COND_AXIS_RESOLUTION-51	"1.000000"
*MEAS_COND_AXIS_RESOLUTION-52	"1.000000"
*MEAS_COND_AXIS_RESOLUTION-53	"-"
*MEAS_COND_AXIS_RESOLUTION-54	"-"
*MEAS_COND_AXIS_RESOLUTION-55	"-"
*MEAS_COND_AXIS_RESOLUTION-56	"1.000000"
*MEAS_COND_AXIS_RESOLUTION-57	"-"
*MEAS_COND_AXIS_RESOLUTION-58	"-"
*MEAS_COND_AXIS_RESOLUTION-59	"-"
*MEAS_COND_AXIS_RESOLUTION-6	""
*MEAS_COND_AXIS_RESOLUTION-60	"1.000000"
*MEAS_COND_AXIS_RESOLUTION-61	"1.000000"
*MEAS_COND_AXIS_RESOLUTION-62	"1.000000"
*MEAS_COND_AXIS_RESOLUTION-63	"1.000000"
*MEAS_COND_AXIS_RESOLUTION-64	"1.000000"
*MEAS_COND_AXIS_RESOLUTION-65	"1.000000"
*MEAS_COND_AXIS_RESOLUTION-66	"1.000000"
*MEAS_COND_AXIS_RESOLUTION-7	""
*MEAS_COND_AXIS_RESOLUTION-8	""
*MEAS_COND_AXIS_RESOLUTION-9	""
*MEAS_COND_AXIS_STATE-0	"Scan"
*MEAS_COND_AXIS_STATE-1	"Fixed"
*MEAS_COND_AXIS_STATE-10	"Fixed"
*MEAS_COND_AXIS_STATE-11	"Fixed"
*MEAS_COND_AXIS_STATE-12	"Fixed"
*MEAS_COND_AXIS_STATE-13	"Fixed"
*MEAS_COND_AXIS_STATE-14	"Fixed"
*MEAS_COND_AXIS_STATE-15	"Fixed"
*MEAS_COND_AXIS_STATE-16	"Fixed"
*MEAS_COND_AXIS_STATE-17	"Fixed"
*MEAS_COND_AXIS_STATE-18	"Fixed"
*MEAS_COND_AXIS_STATE-19	"Fixed"
*MEAS_COND_AXIS_STATE-2	"Fixed"
*MEAS_COND_AXIS_STATE-20	"Fixed"
*MEAS_COND_AXIS_STATE-21	"Fixed"
*MEAS_COND_AXIS_STATE-22	"Fixed"
*MEAS_COND_AXIS_STATE-23	"Fixed"
*MEAS_COND_AXIS_STATE-24	"Fixed"
*MEAS_COND_AXIS_STATE-25	"Fixed"
*MEAS_COND_AXIS_STATE-26	"Fixed"
*MEAS_COND_AXIS_STATE-27	"Fixed"
*MEAS_COND_AXIS_STATE-28	"Fixed"
*MEAS_COND_AXIS_STATE-29	"Fixed"
*MEAS_COND_AXIS_STATE-3	"Fixed"
*MEAS_COND_AXIS_STATE-30	"Fixed"
*MEAS_COND_AXIS_STATE-31	"Fixed"
*MEAS_COND_AXIS_STATE-32	"Fixed"
*MEAS_COND_AXIS_STATE-33	"Fixed"
*MEAS_COND_AXIS_STATE-34	"Fixed"
*MEAS_COND_AXIS_STATE-35	"Fixed"
*MEAS_COND_AXIS_STATE-36	"Fixed"
*MEAS_COND_AXIS_STATE-37	"Fixed"
*MEAS_COND_AXIS_STATE-38	"Fixed"
*MEAS_COND_AXIS_STATE-39	"Fixed"
*MEAS_COND_AXIS_STATE-4	"Fixed"
*MEAS_COND_AXIS_STATE-40	"Fixed"
*MEAS_COND_AXIS_STATE-41	"Fixed"
*MEAS_COND_AXIS_STATE-42	"Fixed"
*MEAS_COND_AXIS_STATE-43	"Fixed"
*MEAS_COND_AXIS_STATE-44	"Fixed"
*MEAS_COND_AXIS_STATE-45	"Fixed"
*MEAS_COND_AXIS_STATE-46	"Fixed"
*MEAS_COND_AXIS_STATE-47	"Fixed"
*MEAS_COND_AXIS_STATE-48	"Fixed"
*MEAS_COND_AXIS_STATE-49	"Fixed"
*MEAS_COND_AXIS_STATE-5	"Fixed"
*MEAS_COND_AXIS_STATE-50	"Fixed"
*MEAS_COND_AXIS_STATE-51	"Fixed"
*MEAS_COND_AXIS_STATE-52	"Fixed"
*MEAS_COND_AXIS_STATE-53	"Fixed"
*MEAS_COND_AXIS_STATE-54	"Fixed"
*MEAS_COND_AXIS_STATE-55	"Fixed"
*MEAS_COND_AXIS_STATE-56	"Fixed"
*MEAS_COND_AXIS_STATE-57	"Fixed"
*MEAS_COND_AXIS_STATE-58	"Fixed"
*MEAS_COND_AXIS_STATE-59	"Fixed"
*MEAS_COND_AXIS_STATE-6	"Fixed"
*MEAS_COND_AXIS_STATE-60	"Fixed"
*MEAS_COND_AXIS_STATE-61	"Fixed"
*MEAS_COND_AXIS_STATE-62	"Fixed"
*MEAS_COND_AXIS_STATE-63	"Fixed"
*MEAS_COND_AXIS_STATE-64	"Fixed"
*MEAS_COND_AXIS_STATE-65	"Fixed"
*MEAS_COND_AXIS_STATE-66	"Fixed"
*MEAS_COND_AXIS_STATE-7	"Fixed"
*MEAS_COND_AXIS_STATE-8	"Fixed"
*MEAS_COND_AXIS_STATE-9	"Fixed"
*MEAS_COND_AXIS_UNIT-0	"deg"
*MEAS_COND_AXIS_UNIT-1	""
*MEAS_COND_AXIS_UNIT-10	""
*MEAS_COND_AXIS_UNIT-11	""
*MEAS_COND_AXIS_UNIT-12	""
*MEAS_COND_AXIS_UNIT-13	""
*MEAS_COND_AXIS_UNIT-14	""
*MEAS_COND_AXIS_UNIT-15	""
*MEAS_COND_AXIS_UNIT-16	""
*MEAS_COND_AXIS_UNIT-17	"div"
*MEAS_COND_AXIS_UNIT-18	""
*MEAS_COND_AXIS_UNIT-19	"H"
*MEAS_COND_AXIS_UNIT-2	""
*MEAS_COND_AXIS_UNIT-20	"H"
*MEAS_COND_AXIS_UNIT-21	"mV"
*MEAS_COND_AXIS_UNIT-22	"V"
*MEAS_COND_AXIS_UNIT-23	"V"
*MEAS_COND_AXIS_UNIT-24	"V"
*MEAS_COND_AXIS_UNIT-25	"H"
*MEAS_COND_AXIS_UNIT-26	"H"
*MEAS_COND_AXIS_UNIT-27	"H"
*MEAS_COND_AXIS_UNIT-28	"H"
*MEAS_COND_AXIS_UNIT-29	"H"
*MEAS_COND_AXIS_UNIT-3	""
*MEAS_COND_AXIS_UNIT-30	"H"
*MEAS_COND_AXIS_UNIT-31	"H"
*MEAS_COND_AXIS_UNIT-32	"uS/m"
*MEAS_COND_AXIS_UNIT-33	"L/min"
*MEAS_COND_AXIS_UNIT-34	"degree"
*MEAS_COND_AXIS_UNIT-35	"MPa"
*MEAS_COND_AXIS_UNIT-36	"MPa"
*MEAS_COND_AXIS_UNIT-37	"MPa"
*MEAS_COND_AXIS_UNIT-38	"L/min"
*MEAS_COND_AXIS_UNIT-39	"C"
*MEAS_COND_AXIS_UNIT-4	""
*MEAS_COND_AXIS_UNIT-40	"MPa"
*MEAS_COND_AXIS_UNIT-41	"degree"
*MEAS_COND_AXIS_UNIT-42	"percent"
*MEAS_COND_AXIS_UNIT-43	"degree"
*MEAS_COND_AXIS_UNIT-44	"C"
*MEAS_COND_AXIS_UNIT-45	"H"
*MEAS_COND_AXIS_UNIT-46	"time"
*MEAS_COND_AXIS_UNIT-47	"msec"
*MEAS_COND_AXIS_UNIT-48	"msec"
*MEAS_COND_AXIS_UNIT-49	"H"
*MEAS_COND_AXIS_UNIT-5	""
*MEAS_COND_AXIS_UNIT-50	"times"
*MEAS_COND_AXIS_UNIT-51	"msec"
*MEAS_COND_AXIS_UNIT-52	"msec"
*MEAS_COND_AXIS_UNIT-53	"-"
*MEAS_COND_AXIS_UNIT-54	"-"
*MEAS_COND_AXIS_UNIT-55	"-"
*MEAS_COND_AXIS_UNIT-56	""
*MEAS_COND_AXIS_UNIT-57	"-"
*MEAS_COND_AXIS_UNIT-58	"-"
*MEAS_COND_AXIS_UNIT-59	"-"
*MEAS_COND_AXIS_UNIT-6	""
*MEAS_COND_AXIS_UNIT-60	""
*MEAS_COND_AXIS_UNIT-61	""
*MEAS_COND_AXIS_UNIT-62	""
*MEAS_COND_AXIS_UNIT-63	""
*MEAS_COND_AXIS_UNIT-64	""
*MEAS_COND_AXIS_UNIT-65	""
*MEAS_COND_AXIS_UNIT-66	""
*MEAS_COND_AXIS_UNIT-67	""
*MEAS_COND_AXIS_UNIT-68	""
*MEAS_COND_AXIS_UNIT-69	""
*MEAS_COND_AXIS_UNIT-7	""
*MEAS_COND_AXIS_UNIT-70	""
*MEAS_COND_AXIS_UNIT-8	""
*MEAS_COND_AXIS_UNIT-9	""
*MEAS_COND_COUNTER_ADJUSTMENTMETHOD	""
*MEAS_COND_COUNTER_CENTER_X	"0.5"
*MEAS_COND_COUNTER_CENTER_Y	"63.28"
*MEAS_COND_COUNTER_COUNTMODE	"Differential"
*MEAS_COND_COUNTER_DEADTIMECORRECTION	"Enabled"
*MEAS_COND_COUNTER_DISTANCE	"150"
*MEAS_COND_COUNTER_ENERGYMODE	"Standard"
*MEAS_COND_COUNTER_PHA_UNIT	"div"
*MEAS_COND_COUNTER_PHABASE	"36"
*MEAS_COND_COUNTER_PHAWINDOW	"26"
*MEAS_COND_COUNTER_PITCH_X	"20"
*MEAS_COND_COUNTER_PITCH_Y	"0.1"
*MEAS_COND_COUNTER_PITCHUNIT	"mm"
*MEAS_COND_COUNTER_VALIDWIDTH_X	"1"
*MEAS_COND_COUNTER_VALIDWIDTH_Y	"200"
*MEAS_COND_XG_CURRENT	"15"
*MEAS_COND_XG_VOLTAGE	"40"
*MEAS_COND_XG_WAVE_TYPE	"Ka"
*MEAS_DATA_COUNT	"9001"
*MEAS_SCAN_AXIS_X	"TwoThetaTheta"
*MEAS_SCAN_AXIS_X_INTERNAL	"TwoThetaTheta"
*MEAS_SCAN_END_TIME "04/19/2024 15:16:52"
*MEAS_SCAN_MODE	"CONTINUOUS"
*MEAS_SCAN_MODE_INTERNAL	"TDI_1D"
*MEAS_SCAN_RESOLUTION_X	"0.0025"
*MEAS_SCAN_SPEED	"10.0000"
*MEAS_SCAN_SPEED_UNIT	"deg/min"
*MEAS_SCAN_START	"10.0000"
*MEAS_SCAN_START_TIME "04/19/2024 15:07:11"
*MEAS_SCAN_STEP	"0.0100"
*MEAS_SCAN_STOP	"100.0000"
*MEAS_SCAN_UNEQUALY_SPACED	"False"
*MEAS_SCAN_UNIT_X	"deg"
*MEAS_SCAN_UNIT_Y	"cps"
#Intensity_unit=cps
#Attenuator_coefficient=1.0000
10.0000	6224.9175
10.0100	6001.6650
10.0200	5998.4150
10.0300	5820.1100
10.0400	5736.2225
10.0500	6076.5075
10.0600	6173.2000
10.0700	6213.8075
10.0800	6043.0575
10.0900	6125.2625
10.1000	6014.6275
10.1100	5694.5425
10.1200	5812.7600
10.1300	5926.9800
10.1400	5858.7575
10.1500	5781.7575
10.1600	5779.2200
10.1700	5912.5000
10.1800	6017.7725
10.1900	5871.3150
10.2000	5935.1850
10.2100	6095.1525
10.2200	5909.3450
10.2300	6166.6675
10.2400	6127.2200
10.2500	5755.9925
10.2600	5963.7800
10.2700	5783.1400
10.2800	5947.0175
10.2900	5937.4500
10.3000	6126.3500
10.3100	5931.8950
10.3200	6393.7775
10.3300	5968.7475
10.3400	5842.8025
10.3500	6113.7750
10.3600	6068.9450
10.3700	5909.5050
10.3800	5843.3125
10.3900	5969.8675
10.4000	6177.6825
10.4100	6113.8550
10.4200	6105.7250
10.4300	6305.4275
10.4400	5852.7100
10.4500	6222.4050
10.4600	5938.6375
10.4700	6138.2375
10.4800	5665.9725
10.4900	6022.5075
10.5000	5895.9600
10.5100	5856.7000
10.5200	5948.0025
10.5300	6123.3025
10.5400	6211.8825
10.5500	6338.1775
10.5600	6210.4575
10.5700	6316.4275
10.5800	6114.0800
10.5900	6102.6425
10.6000	6343.5775
10.6100	6452.6525
10.6200	6268.1250
10.6300	6088.3750
10.6400	6133.6975
10.6500	5958.2800
10.6600	6265.4250
10.6700	6261.1050
10.6800	6381.5900
10.6900	6171.9725
10.7000	6448.7850
10.7100	6426.0900
10.7200	6310.5225
10.7300	6004.7275
10.7400	5864.2475
10.7500	6040.5550
10.7600	5922.5350
10.7700	6019.8425
10.7800	6278.6925
10.7900	6227.0500
10.8000	6373.5500
10.8100	6460.9650
10.8200	6399.2025
10.8300	6632.4425
10.8400	6843.2800
10.8500	6750.0000
10.8600	6730.0800
10.8700	6458.8000
10.8800	6580.0550
10.8900	6521.3825
10.9000	6348.9200
10.9100	6327.9675
10.9200	6260.6625
10.9300	6407.1325
10.9400	6246.6650
10.9500	5985.5600
10.9600	6541.6050
10.9700	6879.5025
10.9800	6321.7950
10.9900	6415.2825
11.0000	6650.0000
11.0100	6639.9475
11.0200	6480.3375
11.0300	6449.2000
11.0400	6720.6800
11.0500	7011.8575
11.0600	6368.9225
11.0700	5893.6700
11.0800	6327.5875
11.0900	6232.3825
11.1000	6218.5550
11.1100	6256.5600
11.1200	6387.1325
11.1300	6734.2575
11.1400	6740.8350
11.1500	6568.7775
11.1600	6305.8325
11.1700	6120.2500
11.1800	6181.5550
11.1900	6163.2350
11.2000	6396.4975
11.2100	6327.2525
11.2200	6228.7325
11.2300	6453.4200
11.2400	6516.6675
11.2500	6514.1425
11.2600	6473.3400
11.2700	6607.4475
11.2800	6731.9500
11.2900	6388.2150
11.3000	6497.0475
11.3100	6753.0700
11.3200	6473.8175
11.3300	6300.6250
11.3400	6648.4425
11.3500	6625.1600
11.3600	6809.9475
11.3700	7012.8750
11.3800	6933.3325
11.3900	6935.5675
11.4000	6972.2700
11.4100	6728.2200
11.4200	6626.0750
11.4300	6834.7675
11.4400	6838.2750
11.4500	6192.2700
11.4600	6029.1925
11.4700	6309.0875
11.4800	6136.7425
11.4900	6243.6675
11.5000	6857.2800
11.5100	6247.2150
11.5200	6619.3075
11.5300	7482.5275
11.5400	7051.9200
11.5500	7075.3075
11.5600	6451.8775
11.5700	6498.7625
11.5800	6485.6450
11.5900	6982.7275
11.6000	6951.1150
11.6100	6538.0625
11.6200	6670.7550
11.6300	6788.5275
11.6400	6928.7725
11.6500	6786.4850
11.6600	6412.7900
11.6700	6774.5475
11.6800	6528.0500
11.6900	6847.9425
11.7000	6293.8925
11.7100	6623.9600
11.7200	6866.9575
11.7300	7387.3300
11.7400	6985.3325
11.7500	7039.1600
11.7600	6687.2175
11.7700	6820.4950
11.7800	6949.5275
11.7900	6935.6550
11.8000	7018.0400
11.8100	7053.6075
11.8200	6582.8900
11.8300	6570.1550
11.8400	6701.2875
11.8500	6755.0625
11.8600	6944.6075
11.8700	6726.4025
11.8800	6452.4050
11.8900	6556.2975
11.9000	6821.6900
11.9100	7031.0575
11.9200	6927.7500
11.9300	6685.5250
11.9400	6782.9750
11.9500	6769.8250
11.9600	6914.9475
11.9700	6831.6500
11.9800	6764.4950
11.9900	7466.2500
12.0000	6602.2050
12.0100	6715.7425
12.0200	6663.0550
12.0300	6476.9475
12.0400	7051.1450
12.0500	7108.8425
12.0600	6644.2825
12.0700	6305.3025
12.0800	6640.0400
12.0900	7066.1650
12.1000	7032.8450
12.1100	6994.8000
12.1200	6637.0000
12.1300	6901.9975
12.1400	7049.3550
12.1500	7000.8300
12.1600	7066.2650
12.1700	7035.0725
12.1800	7179.6125
12.1900	6848.7475
12.2000	6734.3625
12.2100	6837.1150
12.2200	7218.0800
12.2300	7364.5675
12.2400	7131.0500
12.2500	6868.7000
12.2600	7117.0525
12.2700	7165.4575
12.2800	6999.7725
12.2900	6967.6250
12.3000	7118.3550
12.3100	7396.5025
12.3200	6766.3275
12.3300	6700.2325
12.3400	6751.1950
12.3500	7032.3875
12.3600	6783.1100
12.3700	6716.9575
12.3800	6817.6550
12.3900	7216.5300
12.4000	7150.3475
12.4100	7366.6675
12.4200	7366.4850
12.4300	7116.6475
12.4400	7050.0100
12.4500	7283.1950
12.4600	6900.3925
12.4700	6567.1550
12.4800	6999.1750
12.4900	7182.9050
12.5000	7166.7125
12.5100	7033.7625
12.5200	7099.7550
12.5300	7149.7950
12.5400	6834.7700
12.5500	7065.5050
12.5600	6701.9875
12.5700	6898.8275
12.5800	6982.8075
12.5900	6834.3450
12.6000	7114.6325
12.6100	7315.1425
12.6200	7630.7800
12.6300	7534.1825
12.6400	7681.9925
12.6500	7369.6400
12.6600	7119.1225
12.6700	7067.1800
12.6800	7297.5000
12.6900	7382.4025
12.7000	7119.7600
12.7100	7198.9975
12.7200	7331.6700
12.7300	7103.0175
12.7400	7478.2075
12.7500	7499.7700
12.7600	7845.0100
12.7700	7636.5200
12.7800	7272.2200
12.7900	7217.4475
12.8000	7265.8650
12.8100	7004.3950
12.8200	7360.4600
12.8300	7301.1575
12.8400	7496.4375
12.8500	7663.6225
12.8600	6865.2800
12.8700	7111.5575
12.8800	7280.0675
12.8900	7152.6725
12.9000	7313.2500
12.9100	7055.5850
12.9200	7147.8600
12.9300	7296.7250
12.9400	7642.2000
12.9500	7389.3950
12.9600	7090.2875
12.9700	7327.4275
12.9800	7512.2525
12.9900	7305.3125
13.0000	7771.2625
13.0100	7361.0175
13.0200	7918.2425
13.0300	7414.0375
13.0400	7675.7475
13.0500	7553.6300
13.0600	7387.9450
13.0700	7269.9475
13.0800	7266.6675
13.0900	7816.8875
13.1000	8286.2475
13.1100	7750.2900
13.1200	7458.6050
13.1300	7466.1525
13.1400	7385.9400
13.1500	7351.0575
13.1600	7511.3025
13.1700	7968.1050
13.1800	7757.7200
13.1900	7894.9700
13.2000	7642.3975
13.2100	7488.5000
13.2200	7451.1625
13.2300	7659.0075
13.2400	7586.3175
13.2500	7599.3950
13.2600	7455.5050
13.2700	7433.9525
13.2800	7802.2475
13.2900	7592.2150
13.3000	7567.3075
13.3100	7502.5975
13.3200	7980.2825
13.3300	7823.9800
13.3400	7752.6900
13.3500	7797.9600
13.3600	7544.3350
13.3700	7661.1050
13.3800	7714.5575
13.3900	7349.6725
13.4000	7604.4600
13.4100	8349.9550
13.4200	7459.1925
13.4300	7703.3325
13.4400	8162.3775
13.4500	7912.8525
13.4600	7518.3275
13.4700	7404.6275
13.4800	7701.8675
13.4900	7557.8650
13.5000	7486.5100
13.5100	7768.9000
13.5200	7894.3325
13.5300	7424.5150
13.5400	7352.4750
13.5500	7888.3625
13.5600	8043.2800
13.5700	7765.2600
13.5800	7607.7000
13.5900	7852.8575
13.6000	7361.1975
13.6100	7585.9450
13.6200	7994.5150
13.6300	8142.8500
13.6400	8134.2350
13.6500	7755.1525
13.6600	8048.3300
13.6700	8050.9250
13.6800	7955.5925
13.6900	7729.8250
13.7000	7732.3850
13.7100	7796.1775
13.7200	8239.7025
13.7300	7403.3900
13.7400	7444.1300
13.7500	7842.0125
13.7600	7772.6300
13.7700	7907.6525
13.7800	7619.1775
13.7900	7787.7950
13.8000	7581.0150
13.8100	7582.3000
13.8200	7208.3000
13.8300	7589.4175
13.8400	7476.1675
13.8500	7809.9375
13.8600	7926.9050
13.8700	7730.6925
13.8800	8277.5425
13.8900	7756.0700
13.9000	7576.5875
13.9100	7753.3450
13.9200	7782.2150
13.9300	7581.3000
13.9400	7830.7325
13.9500	7896.5775
13.9600	7512.0550
13.9700	8072.7125
13.9800	7992.6500
13.9900	7456.5250
14.0000	7741.8850
14.0100	7967.8900
14.0200	8060.6875
14.0300	8546.0250
14.0400	7949.6625
14.0500	7621.9425
14.0600	8078.6325
14.0700	7808.0275
14.0800	8168.9375
14.0900	8092.0850
14.1000	7775.1625
14.1100	8227.4225
14.1200	8158.9175
14.1300	7765.3750
14.1400	7641.0700
14.1500	7479.6400
14.1600	7635.6425
14.1700	8049.1950
14.1800	8067.9875
14.1900	8189.3700
14.2000	8062.0300
14.2100	7942.7450
14.2200	8009.9050
14.2300	7986.0525
14.2400	7922.1375
14.2500	8650.6250
14.2600	8349.8750
14.2700	7950.0650
14.2800	7825.0625
14.2900	8091.3350
14.3000	8269.1800
14.3100	7780.2975
14.3200	7946.6325
14.3300	8316.9050
14.3400	8456.5400
14.3500	8375.3950
14.3600	8245.0350
14.3700	8233.3325
14.3800	8096.6400
14.3900	7931.5300
14.4000	7749.7700
14.4100	8082.1175
14.4200	8344.0150
14.4300	8639.3425
14.4400	8076.1775
14.4500	8198.2600
14.4600	8171.2925
14.4700	7939.9125
14.4800	7992.2125
14.4900	8196.3150
14.5000	7899.7100
14.5100	7640.3875
14.5200	7872.9800
14.5300	8095.9000
14.5400	8417.8950
14.5500	8796.2275
14.5600	8261.6050
14.5700	7914.2875
14.5800	7913.3925
14.5900	7976.7525
14.6000	8088.4275
14.6100	8415.1175
14.6200	8270.0275
14.6300	7920.2275
14.6400	7883.3325
14.6500	8018.0975
14.6600	7928.5725
14.6700	8215.8200
14.6800	8414.4475
14.6900	8612.6350
14.7000	8349.5925
14.7100	8092.7800
14.7200	8588.7875
14.7300	7874.6950
14.7400	7813.1375
14.7500	7995.3900
14.7600	8448.3500
14.7700	8247.0800
14.7800	8291.0150
14.7900	8537.7850
14.8000	8403.2775
14.8100	8457.5600
14.8200	8288.6175
14.8300	8296.3250
14.8400	8403.7500
14.8500	7927.8250
14.8600	8370.0475
14.8700	8729.2800
14.8800	8677.9300
14.8900	8681.4475
14.9000	8373.0975
14.9100	8540.0450
14.9200	8242.0125
14.9300	7624.7900
14.9400	8095.4125
14.9500	8417.1250
14.9600	7993.5325
14.9700	8154.0825
14.9800	8095.0825
14.9900	8347.9425
15.0000	8691.8750
15.0100	8542.4375
15.0200	8868.8950
15.0300	8901.9975
15.0400	8401.5575
15.0500	8567.7650
15.0600	8629.2875
15.0700	8999.2275
15.0800	8845.2125
15.0900	8451.1800
15.1000	7990.8800
15.1100	8269.2100
15.1200	8156.1200
15.1300	8673.0550
15.1400	8443.8425
15.1500	8633.1325
15.1600	8579.2900
15.1700	8697.6575
15.1800	8643.9350
15.1900	8793.2550
15.2000	8773.0775
15.2100	8781.1875
15.2200	8478.5425
15.2300	8331.7925
15.2400	8418.1500
15.2500	8244.9725
15.2600	7883.6000
15.2700	8253.0525
15.2800	8374.5250
15.2900	8036.3725
15.3000	8604.6200
15.3100	8786.6425
15.3200	8583.5175
15.3300	8708.6650
15.3400	8819.8275
15.3500	8761.2950
15.3600	8893.9950
15.3700	8369.7975
15.3800	8081.9700
15.3900	8653.7450
15.4000	8721.2675
15.4100	8601.7975
15.4200	8382.4300
15.4300	8579.4725
15.4400	8846.0100
15.4500	8467.8875
15.4600	8042.0625
15.4700	8598.6325
15.4800	8828.7100
15.4900	8635.6075
15.5000	8614.2850
15.5100	8959.3000
15.5200	9130.8125
15.5300	8750.7225
15.5400	8954.1150
15.5500	8615.4275
15.5600	8735.0575
15.5700	8510.5825
15.5800	8793.6975
15.5900	8835.7900
15.6000	8804.9300
15.6100	8870.9700
15.6200	8713.1050
15.6300	8839.2850
15.6400	8809.9900
15.6500	8729.1950
15.6600	8263.7825
15.6700	8565.2325
15.6800	8491.9725
15.6900	8523.1775
15.7000	8378.0175
15.7100	8519.3350
15.7200	8803.8525
15.7300	8666.7700
15.7400	9055.9250
15.7500	8992.5525
15.7600	9079.2250
15.7700	9437.4775
15.7800	9514.0525
15.7900	8926.7800
15.8000	8802.6300
15.8100	9108.6225
15.8200	9236.7675
15.8300	8927.7300
15.8400	8852.6625
15.8500	8696.0550
15.8600	8624.7075
15.8700	8574.7325
15.8800	8510.7875
15.8900	8932.8150
15.9000	8751.5525
15.9100	8881.2875
15.9200	8442.8175
15.9300	8572.8550
15.9400	8728.0275
15.9500	8624.7950
15.9600	8919.7775
15.9700	9038.9125
15.9800	8869.4725
15.9900	9069.2650
16.0000	8867.0075
16.0100	9024.5900
16.0200	9052.8125
16.0300	9077.6900
16.0400	8765.0925
16.0500	8769.1400
16.0600	8783.3325
16.0700	8907.6350
16.0800	8684.8800
16.0900	8591.9500
16.1000	8514.4025
16.1100	8348.4425
16.1200	8826.1375
16.1300	9291.1225
16.1400	9009.0975
16.1500	8850.8675
16.1600	9245.4100
16.1700	9196.0575
16.1800	8892.2850
16.1900	8682.5150
16.2000	9033.6650
16.2100	9198.8300
16.2200	9107.1825
16.2300	9261.1350
16.2400	9395.6800
16.2500	9307.3850
16.2600	9174.1200
16.2700	8945.3500
16.2800	8777.2850
16.2900	8995.2775
16.3000	9050.0000
16.3100	9009.1700
16.3200	9312.8275
16.3300	9206.6275
16.3400	8990.0700
16.3500	8746.3625
16.3600	9324.1000
16.3700	9141.2525
16.3800	9391.8775
16.3900	9412.4975
16.4000	9508.2675
16.4100	9587.4350
16.4200	9518.9000
16.4300	9445.9675
16.4400	9014.8425
16.4500	8646.8425
16.4600	9176.5750
16.4700	9464.8825
16.4800	9082.5600
16.4900	9265.9375
16.5000	9252.6400
16.5100	9367.7375
16.5200	9265.6825
16.5300	8924.5950
16.5400	9400.0100
16.5500	9345.6450
16.5600	9139.2250
16.5700	9059.8325
16.5800	8849.2875
16.5900	9161.0525
16.6000	9570.7325
16.6100	8888.7450
16.6200	9167.1375
16.6300	9163.2875
16.6400	8946.7175
16.6500	9592.7050
16.6600	9327.3475
16.6700	9203.3625
16.6800	9053.7475
16.6900	9149.5375
16.7000	9143.4975
16.7100	9080.2525
16.7200	9292.1125
16.7300	9045.1825
16.7400	8820.9775
16.7500	9114.2300
16.7600	9636.5025
16.7700	9366.6550
16.7800	9187.4050
16.7900	8915.8350
16.8000	9034.7025
16.8100	9663.4550
16.8200	9474.0900
16.8300	9699.3525
16.8400	9349.0900
16.8500	9299.0850
16.8600	9382.3750
16.8700	9150.4700
16.8800	8715.8450
16.8900	8669.1300
16.9000	9063.4475
16.9100	9572.7300
16.9200	9539.3400
16.9300	9356.1025
16.9400	9303.5925
16.9500	9482.9025
16.9600	9441.9425
16.9700	9664.5650
16.9800	9537.7550
16.9900	9196.6725
17.0000	9650.5450
17.0100	9617.8200
17.0200	9254.5650
17.0300	9036.7100
17.0400	9051.9475
17.0500	9352.1900
17.0600	9511.1525
17.0700	9157.4625
17.0800	9296.0975
17.0900	9392.5550
17.1000	9128.3600
17.1100	9295.6050
17.1200	9340.8300
17.1300	9152.6025
17.1400	9474.1200
17.1500	9634.9025
17.1600	9250.6150
17.1700	9429.4525
17.1800	9516.6675
17.1900	8976.6550
17.2000	8970.8525
17.2100	9401.8700
17.2200	9747.6325
17.2300	9342.2250
17.2400	9340.9550
17.2500	9729.0800
17.2600	9526.2100
17.2700	9510.0625
17.2800	9571.6725
17.2900	9991.9975
17.3000	9478.5625
17.3100	9347.1000
17.3200	9647.0500
17.3300	9389.4600
17.3400	9321.5150
17.3500	9358.7700
17.3600	9493.7650
17.3700	9698.4500
17.3800	9699.2300
17.3900	10076.5325
17.4000	10428.1525
17.4100	9816.0125
17.4200	9701.2625
17.4300	9657.4400
17.4400	9431.0875
17.4500	9316.1400
17.4600	9691.3100
17.4700	9791.4375
17.4800	9871.5725
17.4900	9748.8400
17.5000	10065.0525
17.5100	10321.7050
17.5200	9989.5500
17.5300	9313.9475
17.5400	9233.7575
17.5500	9517.5525
17.5600	9700.2850
17.5700	9695.7525
17.5800	9683.3325
17.5900	9645.8050
17.6000	9445.8250
17.6100	9645.6625
17.6200	9620.9850
17.6300	9383.7425
17.6400	9154.6150
17.6500	9523.5325
17.6600	9604.4275
17.6700	9595.7725
17.6800	9500.5550
17.6900	9864.1625
17.7000	9888.2825
17.7100	9502.6825
17.7200	9172.6100
17.7300	9137.1600
17.7400	9484.2025
17.7500	10156.6100
17.7600	9880.3075
17.7700	9519.0425
17.7800	9931.3675
17.7900	10087.6650
17.8000	10095.6575
17.8100	10001.4700
17.8200	10003.5900
17.8300	10102.7575
17.8400	9776.9250
17.8500	9674.5625
17.8600	9572.8825
17.8700	9422.9625
17.8800	9996.0700
17.8900	9751.3225
17.9000	9644.5200
17.9100	9862.3200
17.9200	9713.3825
17.9300	9877.5475
17.9400	9820.2450
17.9500	9693.5075
17.9600	10178.4025
17.9700	10269.2650
17.9800	10002.1700
17.9900	10244.9250
18.0000	10427.4100
18.0100	9843.0000
18.0200	9495.3550
18.0300	9365.1450
18.0400	9418.1275
18.0500	9256.3250
18.0600	8977.7050
18.0700	9081.3025
18.0800	9415.7175
18.0900	9661.4975
18.1000	9933.7525
18.1100	9932.3075
18.1200	10201.0650
18.1300	10232.4300
18.1400	10284.1750
18.1500	10581.0200
18.1600	10407.1700
18.1700	10120.0250
18.1800	9762.2550
18.1900	9913.5700
18.2000	10303.9850
18.2100	10021.8950
18.2200	9818.8500
18.2300	10026.9550
18.2400	10033.1150
18.2500	9916.5100
18.2600	9382.7650
18.2700	9385.7925
18.2800	9407.1650
18.2900	9644.9475
18.3000	9452.9325
18.3100	9333.3325
18.3200	9297.7375
18.3300	9307.0450
18.3400	9660.2325
18.3500	9871.0300
18.3600	10112.9250
18.3700	10022.6950
18.3800	9512.9775
18.3900	9663.8025
18.4000	10177.3925
18.4100	10380.4725
18.4200	10235.1400
18.4300	9954.8650
18.4400	10113.5800
18.4500	10404.6500
18.4600	10342.4550
18.4700	10013.5200
18.4800	10357.1625
18.4900	10034.6225
18.5000	9933.7075
18.5100	10147.0675
18.5200	10146.5500
18.5300	9789.7000
18.5400	9766.6850
18.5500	9851.6450
18.5600	10018.1225
18.5700	10001.8425
18.5800	9896.8725
18.5900	9878.2900
18.6000	10266.6175
18.6100	10073.5575
18.6200	9661.5400
18.6300	9943.9825
18.6400	10244.0325
18.6500	10311.5700
18.6600	10362.9100
18.6700	10672.1300
18.6800	10580.6850
18.6900	10137.3175
18.7000	10098.5825
18.7100	10553.0550
18.7200	10307.5775
18.7300	10105.1700
18.7400	9881.7100
18.7500	9898.1325
18.7600	9881.1750
18.7700	9850.0000
18.7800	10090.5100
18.7900	10074.1175
18.8000	10176.7550
18.8100	10627.0550
18.8200	10583.0800
18.8300	10335.0300
18.8400	10209.6725
18.8500	10137.7750
18.8600	10651.5650
18.8700	10433.7575
18.8800	10125.7650
18.8900	9981.1500
18.9000	10035.4350
18.9100	10049.3275
18.9200	10157.9275
18.9300	10250.6200
18.9400	10097.0375
18.9500	10084.4650
18.9600	10240.8625
18.9700	10232.3100
18.9800	10346.5425
18.9900	10394.1400
19.0000	10169.5000
19.0100	10392.7800
19.0200	10651.1250
19.0300	10711.2275
19.0400	10402.5600
19.0500	10059.4450
19.0600	10123.4675
19.0700	10446.2000
19.0800	10521.9400
19.0900	10455.3075
19.1000	10165.4025
19.1100	9944.0950
19.1200	10033.7475
19.1300	9988.6350
19.1400	10233.7750
19.1500	10149.8475
19.1600	10144.4275
19.1700	10322.1025
19.1800	10272.4225
19.1900	10161.2550
19.2000	10332.6475
19.2100	10311.6300
19.2200	10039.9575
19.2300	9844.9675
19.2400	10252.5025
19.2500	10384.0850
19.2600	10157.0375
19.2700	10198.7800
19.2800	10398.6700
19.2900	10543.6050
19.3000	10506.4600
19.3100	10356.9375
19.3200	9740.8450
19.3300	9515.7275
19.3400	10173.9000
19.3500	10467.1900
19.3600	10034.7600
19.3700	9925.8500
19.3800	9939.6975
19.3900	10145.5675
19.4000	10397.3575
19.4100	10749.5925
19.4200	10497.7125
19.4300	10283.3325
19.4400	10478.7125
19.4500	10615.8700
19.4600	10264.9050
19.4700	10185.7625
19.4800	10120.1850
19.4900	10060.8075
19.5000	10185.4625
19.5100	10185.2575
19.5200	10419.5300
19.5300	10017.2900
19.5400	10039.5550
19.5500	10302.6975
19.5600	10468.1900
19.5700	10297.1525
19.5800	9898.5075
19.5900	10382.3125
19.6000	10733.3325
19.6100	10530.0550
19.6200	10192.1825
19.6300	10355.0400
19.6400	10836.8075
19.6500	10803.4225
19.6600	10789.8625
19.6700	10732.9175
19.6800	10294.4550
19.6900	10178.9625
19.7000	10371.3450
19.7100	10460.6075
19.7200	10307.6975
19.7300	10449.6200
19.7400	10752.6050
19.7500	10384.9050
19.7600	9947.6875
19.7700	10272.0800
19.7800	11223.0325
19.7900	11053.9850
19.8000	10537.7525
19.8100	10191.4850
19.8200	9871.3975
19.8300	10417.4675
19.8400	10789.5125
19.8500	10364.1975
19.8600	9970.0975
19.8700	10165.7525
19.8800	10124.3175
19.8900	9613.6625
19.9000	9748.4650
19.9100	10352.3200
19.9200	10531.2650
19.9300	10583.2375
19.9400	10726.8925
19.9500	10523.6775
19.9600	10273.2750
19.9700	10455.1250
19.9800	10548.2075
19.9900	10692.6050
20.0000	10138.2375
20.0100	9970.9425
20.0200	10054.7375
20.0300	10191.9775
20.0400	10186.6650
20.0500	10374.0125
20.0600	10533.3325
20.0700	10492.2325
20.0800	10610.3925
20.0900	10484.6050
20.1000	10268.0200
20.1100	10523.8175
20.1200	10757.5825
20.1300	10578.9375
20.1400	10541.8950
20.1500	10640.8050
20.1600	10422.0575
20.1700	9961.1825
20.1800	9970.1375
20.1900	10303.2850
20.2000	10869.9975
20.2100	11068.8350
20.2200	10621.3450
20.2300	10559.0825
20.2400	10592.2725
20.2500	10806.2650
20.2600	10872.2400
20.2700	10870.6300
20.2800	10765.4550
20.2900	10545.8100
20.3000	10557.2275
20.3100	10475.9250
20.3200	10041.8500
20.3300	10027.3875
20.3400	10457.3925
20.3500	10579.8900
20.3600	10753.4750
20.3700	11079.9500
20.3800	10930.3275
20.3900	10580.3650
20.4000	10426.7900
20.4100	10459.7600
20.4200	10679.1125
20.4300	10531.5850
20.4400	10320.2050
20.4500	10458.7625
20.4600	10507.1875
20.4700	10585.5150
20.4800	10785.4050
20.4900	10965.5200
20.5000	10855.5625
20.5100	10575.4650
20.5200	10742.6750
20.5300	11090.9050
20.5400	11081.9350
20.5500	10655.9675
20.5600	10279.1850
20.5700	10036.1700
20.5800	10129.3625
20.5900	10531.0550
20.6000	11010.1525
20.6100	10835.5000
20.6200	10547.1375
20.6300	10786.9575
20.6400	10995.9025
20.6500	10851.1525
20.6600	10509.6175
20.6700	10612.3700
20.6800	11120.3675
20.6900	11340.3025
20.7000	11003.8950
20.7100	10592.4250
20.7200	10505.3500
20.7300	10610.6250
20.7400	10792.1425
20.7500	10941.1900
20.7600	11147.0975
20.7700	10679.6100
20.7800	10230.7700
20.7900	10581.6625
20.8000	11224.2350
20.8100	11126.1300
20.8200	10553.1125
20.8300	10371.6050
20.8400	10476.4650
20.8500	10609.7250
20.8600	10723.9025
20.8700	11023.9800
20.8800	10902.4825
20.8900	10381.3250
20.9000	10489.7350
20.9100	10875.7225
20.9200	11011.7825
20.9300	11014.3850
20.9400	10697.1375
20.9500	10457.2125
20.9600	10893.9450
20.9700	11167.2800
20.9800	10937.5575
20.9900	10960.0975
21.0000	10697.6025
21.0100	10334.2100
21.0200	10471.1175
21.0300	10541.6275
21.0400	10502.0750
21.0500	10610.2775
21.0600	10496.3000
21.0700	10387.3700
21.0800	10864.6400
21.0900	10908.9950
21.1000	11011.2825
21.1100	10929.7600
21.1200	11003.2150
21.1300	10986.1900
21.1400	10480.9875
21.1500	10183.2650
21.1600	10237.0125
21.1700	10176.1175
21.1800	10216.2950
21.1900	10765.3125
21.2000	11035.4625
21.2100	11001.7550
21.2200	10869.4525
21.2300	11062.5075
21.2400	10958.5700
21.2500	10960.1875
21.2600	11108.3700
21.2700	10639.7275
21.2800	10554.4150
21.2900	10558.1700
21.3000	10536.8800
21.3100	10887.0125
21.3200	10773.7150
21.3300	10434.7950
21.3400	10666.5550
21.3500	11043.7600
21.3600	10887.0100
21.3700	10711.9625
21.3800	10686.6525
21.3900	10551.9725
21.4000	10817.4725
21.4100	11442.8100
21.4200	11589.1450
21.4300	11232.6050
21.4400	11105.2775
21.4500	11274.4675
21.4600	11232.0575
21.4700	10776.0150
21.4800	10465.4225
21.4900	10602.0750
21.5000	10778.0125
21.5100	10923.7850
21.5200	11025.5850
21.5300	10685.9350
21.5400	10525.7025
21.5500	10721.1100
21.5600	10978.6750
21.5700	11229.8275
21.5800	11016.4725
21.5900	10687.0100
21.6000	10731.6025
21.6100	10762.6800
21.6200	10805.8675
21.6300	10811.8725
21.6400	10927.0050
21.6500	11442.9575
21.6600	11477.6875
21.6700	11171.9100
21.6800	10757.2925
21.6900	10704.7625
21.7000	10906.2700
21.7100	11067.6125
21.7200	11058.0000
21.7300	10909.4875
21.7400	10863.6675
21.7500	10643.4225
21.7600	10552.1350
21.7700	10973.2250
21.7800	11108.5825
21.7900	10752.1150
21.8000	10876.8350
21.8100	11150.6175
21.8200	10916.3375
21.8300	10657.4650
21.8400	10461.0725
21.8500	10351.6200
21.8600	10675.0075
21.8700	11062.1000
21.8800	11251.9325
21.8900	11470.8425
21.9000	11556.7750
21.9100	11286.3425
21.9200	10989.4275
21.9300	10968.2175
21.9400	11357.0075
21.9500	11334.8475
21.9600	10659.7250
21.9700	10647.7425
21.9800	11110.8200
21.9900	10894.2600
22.0000	10719.2100
22.0100	11027.0000
22.0200	11301.7275
22.0300	11323.7200
22.0400	11073.4875
22.0500	10958.5725
22.0600	10899.3025
22.0700	11001.3250
22.0800	10831.2025
22.0900	10742.9425
22.1000	10941.4450
22.1100	11292.7450
22.1200	11449.6250
22.1300	11216.6725
22.1400	11141.7400
22.1500	10933.5600
22.1600	10824.9750
22.1700	11123.7625
22.1800	11201.1675
22.1900	11074.4000
22.2000	11307.2450
22.2100	11309.5850
22.2200	11075.9150
22.2300	11032.7775
22.2400	11025.7175
22.2500	10736.4675
22.2600	10606.7525
22.2700	11028.3500
22.2800	11374.5775
22.2900	11228.1550
22.3000	10919.2250
22.3100	11077.2325
22.3200	11603.5000
22.3300	11931.0700
22.3400	11667.2550
22.3500	11437.7175
22.3600	11559.4200
22.3700	11159.9875
22.3800	10993.8475
22.3900	11459.2800
22.4000	11660.1250
22.4100	11382.1650
22.4200	11125.8250
22.4300	11252.9250
22.4400	11384.5100
22.4500	11358.0300
22.4600	11198.2475
22.4700	10960.5950
22.4800	11188.0250
22.4900	11460.0450
22.5000	11424.6475
22.5100	11497.1075
22.5200	11343.7225
22.5300	10972.7575
22.5400	10952.4775
22.5500	11305.4675
22.5600	11407.3725
22.5700	11408.2825
22.5800	11441.0525
22.5900	11291.2275
22.6000	11173.8350
22.6100	11025.4575
22.6200	11111.0600
22.6300	11397.3650
22.6400	11709.8550
22.6500	11519.8475
22.6600	11338.8725
22.6700	11478.6075
22.6800	11190.2275
22.6900	11104.9025
22.7000	11455.7800
22.7100	11578.8775
22.7200	11407.8900
22.7300	11104.8525
22.7400	10931.0025
22.7500	11098.2600
22.7600	11404.6225
22.7700	11158.6500
22.7800	10820.9050
22.7900	11154.0450
22.8000	11410.2600
22.8100	11338.6575
22.8200	11196.0400
22.8300	11456.9175
22.8400	11654.0750
22.8500	11538.8450
22.8600	11260.5300
22.8700	10963.2925
22.8800	11105.6150
22.8900	11251.1250
22.9000	11049.7775
22.9100	10972.7600
22.9200	10901.5025
22.9300	11017.9125
22.9400	11413.3600
22.9500	11399.0450
22.9600	11209.1275
22.9700	11094.6025
22.9800	11320.0475
22.9900	11404.5825
23.0000	11140.8200
23.0100	11243.4575
23.0200	11440.0150
23.0300	11629.9075
23.0400	11459.6850
23.0500	11458.8225
23.0600	11255.0475
23.0700	11369.3425
23.0800	11690.7550
23.0900	11433.1575
23.1000	11336.8850
23.1100	11611.1550
23.1200	11435.6675
23.1300	11353.2300
23.1400	11512.7900
23.1500	11344.0825
23.1600	11149.4350
23.1700	11336.0200
23.1800	11290.8625
23.1900	11044.7200
23.2000	10987.4425
23.2100	10964.5925
23.2200	11158.2050
23.2300	11288.7375
23.2400	11551.8150
23.2500	11868.5675
23.2600	11560.8575
23.2700	11408.7650
23.2800	11275.5075
23.2900	11416.5525
23.3000	11909.0550
23.3100	11974.5600
23.3200	11563.4025
23.3300	11462.3100
23.3400	11631.1950
23.3500	11680.8650
23.3600	11697.6875
23.3700	11540.5475
23.3800	11259.4525
23.3900	11309.5450
23.4000	11257.3300
23.4100	11136.0825
23.4200	11383.3350
23.4300	11642.1050
23.4400	11347.9700
23.4500	11278.8100
23.4600	11080.7200
23.4700	10948.6100
23.4800	10998.9275
23.4900	10862.2600
23.5000	11057.7950
23.5100	11422.7050
23.5200	11297.1450
23.5300	11247.1800
23.5400	11615.4950
23.5500	11460.4275
23.5600	11428.2425
23.5700	11879.1850
23.5800	11931.9825
23.5900	11869.4800
23.6000	11773.9125
23.6100	11853.1675
23.6200	12026.9975
23.6300	11893.1125
23.6400	11704.5000
23.6500	11422.5250
23.6600	11527.3675
23.6700	11671.6925
23.6800	11316.6025
23.6900	10858.2100
23.7000	10893.2150
23.7100	11222.5800
23.7200	11413.6000
23.7300	11317.8950
23.7400	11224.5875
23.7500	11292.7075
23.7600	11314.4675
23.7700	11662.8850
23.7800	11669.6550
23.7900	11169.8700
23.8000	11163.4450
23.8100	11559.2325
23.8200	11955.8025
23.8300	11643.0450
23.8400	11580.1150
23.8500	11636.6525
23.8600	11749.9400
23.8700	11956.6550
23.8800	11807.2075
23.8900	11513.5925
23.9000	11373.7125
23.9100	11309.7925
23.9200	11541.5475
23.9300	11938.8575
23.9400	11928.7750
23.9500	11607.4850
23.9600	11477.2700
23.9700	11278.9850
23.9800	11112.4925
23.9900	11490.5600
24.0000	11816.5475
24.0100	11694.1250
24.0200	11697.4750
24.0300	11400.8450
24.0400	11116.4375
24.0500	11060.9475
24.0600	11511.1900
24.0700	11462.9175
24.0800	11580.0650
24.0900	11591.6775
24.1000	11392.3825
24.1100	11459.0100
24.1200	11294.8925
24.1300	11081.8625
24.1400	11413.6375
24.1500	11662.7600
24.1600	11657.8525
24.1700	11616.6675
24.1800	11635.7200
24.1900	11742.7600
24.2000	11524.7775
24.2100	10871.8450
24.2200	10798.7175
24.2300	11109.7850
24.2400	11808.9850
24.2500	12263.4525
24.2600	11812.1850
24.2700	11854.5475
24.2800	12129.1500
24.2900	11748.2675
24.3000	11179.2675
24.3100	11191.3475
24.3200	11260.7425
24.3300	11117.0350
24.3400	11200.5725
24.3500	11551.3600
24.3600	11641.9700
24.3700	11600.0000
24.3800	11538.4525
24.3900	11556.2350
24.4000	11803.4775
24.4100	11909.5450
24.4200	11903.8300
24.4300	11833.8300
24.4400	11907.3275
24.4500	11681.1775
24.4600	11519.9650
24.4700	11657.5350
24.4800	11504.5950
24.4900	11529.9325
24.5000	11871.0000
24.5100	11864.2025
24.5200	11532.8975
24.5300	11332.7500
24.5400	11426.0075
24.5500	11215.6700
24.5600	10928.6225
24.5700	11260.3550
24.5800	11906.0450
24.5900	11715.6925
24.6000	11219.9275
24.6100	11597.1050
24.6200	11726.7875
24.6300	11521.5150
24.6400	11700.5850
24.6500	11913.5325
24.6600	11750.9325
24.6700	11884.4850
24.6800	11774.3550
24.6900	11902.6525
24.7000	11894.8700
24.7100	11618.3700
24.7200	11484.1300
24.7300	11859.5200
24.7400	12325.9625
24.7500	11849.4225
24.7600	11427.9100
24.7700	11293.6450
24.7800	11648.5700
24.7900	11751.6250
24.8000	11401.2625
24.8100	11138.5350
24.8200	11299.7875
24.8300	11821.3800
24.8400	12047.3500
24.8500	11770.2975
24.8600	11679.1800
24.8700	11754.6125
24.8800	11627.0225
24.8900	11781.7975
24.9000	12210.7575
24.9100	12093.4250
24.9200	11955.6250
24.9300	11859.9975
24.9400	11577.1425
24.9500	11360.6050
24.9600	11227.8350
24.9700	11406.0950
24.9800	11655.4525
24.9900	11355.5700
25.0000	11005.5450
25.0100	11066.4850
25.0200	11210.8700
25.0300	11476.5000
25.0400	11783.7825
25.0500	11600.8950
25.0600	11422.3600
25.0700	11290.4750
25.0800	11268.9225
25.0900	11628.7675
25.1000	11554.7925
25.1100	11584.4025
25.1200	11798.0925
25.1300	12379.5775
25.1400	12044.0825
25.1500	11720.1650
25.1600	11581.1325
25.1700	11144.6600
25.1800	11730.2475
25.1900	11982.1100
25.2000	11331.1000
25.2100	11240.7475
25.2200	11374.7225
25.2300	11207.4525
25.2400	11238.7625
25.2500	11510.5975
25.2600	11681.4175
25.2700	11852.1925
25.2800	11607.1000
25.2900	11593.1175
25.3000	11363.6450
25.3100	11573.3075
25.3200	11165.9900
25.3300	10951.3675
25.3400	11554.2375
25.3500	11994.0050
25.3600	11743.4200
25.3700	11960.3600
25.3800	11792.0375
25.3900	11253.1400
25.4000	11041.2025
25.4100	11210.4400
25.4200	11506.4675
25.4300	11814.0575
25.4400	11796.4475
25.4500	11640.8075
25.4600	11697.6950
25.4700	11682.7225
25.4800	11807.9775
25.4900	11744.9375
25.5000	11894.9825
25.5100	12140.6250
25.5200	11729.2375
25.5300	11515.2850
25.5400	11436.1150
25.5500	11240.1425
25.5600	11938.4825
25.5700	11776.4550
25.5800	11852.0250
25.5900	11685.1125
25.6000	11600.4750
25.6100	11542.6450
25.6200	11560.0125
25.6300	11419.2775
25.6400	11881.5950
25.6500	12013.7000
25.6600	11707.9475
25.6700	11586.2000
25.6800	11604.0925
25.6900	11625.7400
25.7000	11845.1475
25.7100	11731.6150
25.7200	11517.1700
25.7300	11624.1200
25.7400	11630.3800
25.7500	11629.7100
25.7600	11911.6475
25.7700	11988.9025
25.7800	12383.2450
25.7900	12114.1850
25.8000	11607.2075
25.8100	11400.3625
25.8200	11292.0425
25.8300	11739.7725
25.8400	11834.6475
25.8500	11518.8200
25.8600	11651.1800
25.8700	11726.1100
25.8800	11502.2500
25.8900	11831.3375
25.9000	11704.1900
25.9100	11565.0375
25.9200	11751.8750
25.9300	11688.9825
25.9400	11381.5375
25.9500	11559.0225
25.9600	12053.4850
25.9700	11699.1050
25.9800	11369.2675
25.9900	11314.1575
26.0000	11703.2375
26.0100	11796.9400
26.0200	11469.6250
26.0300	11575.7200
26.0400	11586.4500
26.0500	11536.4800
26.0600	11549.4650
26.0700	11593.5950
26.0800	11470.8775
26.0900	11884.8750
26.1000	11978.4950
26.1100	11586.6575
26.1200	11545.5625
26.1300	11599.7450
26.1400	11836.3425
26.1500	11903.9975
26.1600	11678.9350
26.1700	11697.3800
26.1800	11805.2225
26.1900	12015.1725
26.2000	12376.6800
26.2100	12016.6600
26.2200	11410.9575
26.2300	11312.9850
26.2400	11362.9550
26.2500	11460.3150
26.2600	11598.9475
26.2700	11684.4000
26.2800	12173.8825
26.2900	11862.1850
26.3000	11354.9950
26.3100	11526.1475
26.3200	11742.3875
26.3300	11777.8625
26.3400	11605.2625
26.3500	11782.4875
26.3600	11583.7200
26.3700	11854.8150
26.3800	12045.3225
26.3900	11445.7800
26.4000	11274.8375
26.4100	11603.9400
26.4200	11609.3700
26.4300	11145.7225
26.4400	11319.2775
26.4500	11831.9625
26.4600	12137.4325
26.4700	11929.1575
26.4800	11237.7600
26.4900	11179.6500
26.5000	11295.3000
26.5100	11935.0475
26.5200	12143.4400
26.5300	11849.7950
26.5400	11539.6150
26.5500	11660.5250
26.5600	11527.3350
26.5700	11710.5600
26.5800	11901.7450
26.5900	11995.2000
26.6000	11853.7975
26.6100	12251.8475
26.6200	12534.8200
26.6300	12236.3200
26.6400	12323.5250
26.6500	12270.9475
26.6600	11693.9700
26.6700	11237.8050
26.6800	11455.4750
26.6900	11606.5600
26.7000	11609.9750
26.7100	11335.8575
26.7200	11214.1275
26.7300	11084.8700
26.7400	11111.2225
26.7500	11910.4650
26.7600	11818.1275
26.7700	11694.6300
26.7800	11548.3150
26.7900	11709.8475
26.8000	11150.5200
26.8100	11315.4375
26.8200	11554.4225
26.8300	11740.2950
26.8400	11592.8800
26.8500	11822.2700
26.8600	11803.7550
26.8700	11514.6600
26.8800	11723.8350
26.8900	11734.4775
26.9000	11376.5250
26.9100	11861.6200
26.9200	12167.2225
26.9300	11922.8775
26.9400	11390.6025
26.9500	11282.8275
26.9600	11930.1625
26.9700	12042.5225
26.9800	11761.6875
26.9900	11474.9925
27.0000	11443.8950
27.0100	11524.5700
27.0200	11003.5425
27.0300	11104.9800
27.0400	11517.8750
27.0500	11886.0225
27.0600	11992.2650
27.0700	11555.6975
27.0800	11287.0675
27.0900	11696.5400
27.1000	11989.6125
27.1100	11984.5275
27.1200	12151.0950
27.1300	12228.4075
27.1400	11968.7450
27.1500	11807.2250
27.1600	11848.9550
27.1700	11592.3175
27.1800	11444.4775
27.1900	11780.3575
27.2000	11822.6475
27.2100	11543.4925
27.2200	11726.8950
27.2300	12050.0000
27.2400	12060.1700
27.2500	11839.9600
27.2600	11866.6675
27.2700	11896.3075
27.2800	11957.5650
27.2900	11834.5125
27.3000	12293.8225
27.3100	12115.4075
27.3200	11718.0125
27.3300	11555.4700
27.3400	11681.2050
27.3500	11462.6325
27.3600	11214.7225
27.3700	11522.0625
27.3800	11941.1950
27.3900	11811.1175
27.4000	11735.6500
27.4100	11851.3600
27.4200	12015.7200
27.4300	12089.6025
27.4400	12016.6975
27.4500	11692.3250
27.4600	12222.5400
27.4700	12435.7250
27.4800	12148.8775
27.4900	11498.7050
27.5000	11643.2725
27.5100	11980.2800
27.5200	11975.8000
27.5300	12050.0425
27.5400	12157.6600
27.5500	11951.5950
27.5600	11775.1750
27.5700	11477.9700
27.5800	12351.7450
27.5900	12259.5375
27.6000	12084.7825
27.6100	11857.1950
27.6200	12208.8325
27.6300	12247.0650
27.6400	12189.4650
27.6500	11910.4675
27.6600	11592.8075
27.6700	11780.3500
27.6800	11993.9075
27.6900	11558.0425
27.7000	11488.0200
27.7100	11372.8375
27.7200	11548.7650
27.7300	11750.4375
27.7400	11177.6825
27.7500	11214.7425
27.7600	11575.4075
27.7700	11805.6925
27.7800	11991.8600
27.7900	12236.2425
27.8000	11588.8625
27.8100	11525.7500
27.8200	11168.2350
27.8300	11672.3925
27.8400	11665.7200
27.8500	11954.6775
27.8600	12125.6525
27.8700	12040.4275
27.8800	12252.6850
27.8900	12215.8375
27.9000	11952.6650
27.9100	11921.5275
27.9200	11670.1075
27.9300	11650.0725
27.9400	11927.1675
27.9500	11967.6400
27.9600	11854.6750
27.9700	11707.7875
27.9800	11786.1975
27.9900	11916.3700
28.0000	11583.3525
28.0100	11728.3325
28.0200	11493.7575
28.0300	11371.7375
28.0400	11518.7025
28.0500	12092.7700
28.0600	11623.4225
28.0700	11755.1650
28.0800	11268.8650
28.0900	11554.2875
28.1000	11572.1000
28.1100	11994.9250
28.1200	11483.3325
28.1300	11549.1000
28.1400	11896.9450
28.1500	11615.6900
28.1600	11231.1025
28.1700	11383.7525
28.1800	11800.0350
28.1900	11892.8725
28.2000	11880.7575
28.2100	12090.2275
28.2200	12233.3325
28.2300	12200.6300
28.2400	11997.6750
28.2500	11997.2300
28.2600	12136.3725
28.2700	12384.0075
28.2800	11811.8000
28.2900	11500.8100
28.3000	11653.2125
28.3100	11299.6375
28.3200	11681.8075
28.3300	12100.0000
28.3400	12053.2475
28.3500	11767.7300
28.3600	11843.6200
28.3700	11583.3325
28.3800	11690.4650
28.3900	12430.4700
28.4000	12546.6775
28.4100	11927.8500
28.4200	11694.5700
28.4300	11844.8775
28.4400	11645.0025
28.4500	12098.4150
28.4600	12280.8550
28.4700	11991.4025
28.4800	11779.2900
28.4900	12325.0275
28.5000	12268.7325
28.5100	12275.1075
28.5200	12249.4125
28.5300	12385.5725
28.5400	11665.0925
28.5500	11561.5675
28.5600	11828.8750
28.5700	12279.3400
28.5800	12220.1975
28.5900	12035.5825
28.6000	12325.5700
28.6100	12479.4875
28.6200	12225.3100
28.6300	12364.3700
28.6400	11918.4925
28.6500	11594.0900
28.6600	11954.3100
28.6700	12107.1825
28.6800	11984.2700
28.6900	11600.0000
28.7000	11592.5325
28.7100	11603.9025
28.7200	12186.9850
28.7300	12283.8625
28.7400	11768.2725
28.7500	11967.5475
28.7600	12318.2750
28.7700	11812.0900
28.7800	12037.4900
28.7900	11935.1100
28.8000	11923.4900
28.8100	11656.0675
28.8200	11295.5650
28.8300	11393.0500
28.8400	11378.2450
28.8500	11783.8400
28.8600	11919.6750
28.8700	11823.7650
28.8800	12050.2075
28.8900	12158.0625
28.9000	11848.3675
28.9100	12420.0725
28.9200	12278.5825
28.9300	12022.7425
28.9400	11479.6875
28.9500	11595.1475
28.9600	11570.9000
28.9700	11790.6325
28.9800	11994.4375
28.9900	11807.0000
29.0000	12022.3600
29.0100	11972.7475
29.0200	12499.6400
29.0300	12288.7350
29.0400	11810.2750
29.0500	11447.0250
29.0600	11766.5875
29.0700	11924.3450
29.0800	11843.7500
29.0900	11929.3075
29.1000	11743.0925
29.1100	11997.7125
29.1200	11765.2450
29.1300	11395.6850
29.1400	11358.5700
29.1500	11498.2175
29.1600	12034.9725
29.1700	12247.3150
29.1800	12395.8350
29.1900	12327.9475
29.2000	12079.2275
29.2100	12057.7825
29.2200	12288.8375
29.2300	11744.5200
29.2400	11334.5400
29.2500	11763.6575
29.2600	12093.1150
29.2700	11795.8900
29.2800	11560.3075
29.2900	11744.7050
29.3000	12465.5725
29.3100	12226.0850
29.3200	11924.5925
29.3300	11762.1650
29.3400	11100.5350
29.3500	11343.4800
29.3600	11711.1350
29.3700	12123.0100
29.3800	12798.8800
29.3900	12090.8925
29.4000	11571.9075
29.4100	12064.7900
29.4200	11815.5175
29.4300	11823.9200
29.4400	12136.4525
29.4500	11927.6175
29.4600	11624.4300
29.4700	11750.9200
29.4800	12013.0700
29.4900	12165.4650
29.5000	11693.3975
29.5100	12084.3925
29.5200	12044.3850
29.5300	11282.1450
29.5400	12259.4600
29.5500	12120.4375
29.5600	11688.8750
29.5700	12023.3375
29.5800	11906.2475
29.5900	12487.2925
29.6000	11741.2725
29.6100	11623.0325
29.6200	11994.3025
29.6300	11896.2400
29.6400	11864.9450
29.6500	12396.3200
29.6600	12328.7850
29.6700	12236.5025
29.6800	11988.4300
29.6900	11800.9325
29.7000	12112.3175
29.7100	12031.6125
29.7200	12002.5500
29.7300	12044.1200
29.7400	11914.2400
29.7500	11576.2450
29.7600	12089.8150
29.7700	12210.2650
29.7800	12096.7675
29.7900	12361.2050
29.8000	12206.8575
29.8100	11341.0000
29.8200	11869.5125
29.8300	12290.7375
29.8400	12441.9650
29.8500	12241.4450
29.8600	11686.8875
29.8700	11758.2575
29.8800	11554.2325
29.8900	11277.5600
29.9000	11555.4700
29.9100	12066.1500
29.9200	11663.6700
29.9300	12001.2825
29.9400	12019.4500
29.9500	11643.0650
29.9600	11053.5000
29.9700	11607.9800
29.9800	12269.6225
29.9900	12343.6050
30.0000	12161.5250
30.0100	12006.5625
30.0200	11722.1800
30.0300	11887.1225
30.0400	12003.7200
30.0500	12122.9250
30.0600	12307.9700
30.0700	12041.3600
30.0800	12306.3925
30.0900	12509.4400
30.1000	12256.7575
30.1100	11907.4300
30.1200	11578.3625
30.1300	11408.3975
30.1400	11719.6900
30.1500	11846.4175
30.1600	12340.5200
30.1700	11959.0250
30.1800	11658.2375
30.1900	11984.3250
30.2000	11329.6975
30.2100	11915.5825
30.2200	12604.3300
30.2300	12010.0425
30.2400	10917.6275
30.2500	11790.7550
30.2600	12157.6000
30.2700	11685.7550
30.2800	11830.7200
30.2900	12609.3125
30.3000	12174.6000
30.3100	11648.1600
30.3200	11544.9725
30.3300	12301.2150
30.3400	12379.3700
30.3500	12100.8925
30.3600	12173.4925
30.3700	12693.0850
30.3800	12131.9800
30.3900	12019.4200
30.4000	12267.8825
30.4100	12381.6975
30.4200	12215.8975
30.4300	12132.0400
30.4400	11984.0025
30.4500	12067.0375
30.4600	12115.1850
30.4700	11898.8550
30.4800	11717.1375
30.4900	11801.3450
30.5000	12067.7800
30.5100	12315.8950
30.5200	12116.7200
30.5300	12133.1550
30.5400	12066.3900
30.5500	11933.3825
30.5600	11966.6950
30.5700	12000.0925
30.5800	12333.2275
30.5900	12283.3800
30.6000	12066.9925
30.6100	11384.7700
30.6200	12197.7975
30.6300	12033.8825
30.6400	11568.4800
30.6500	11815.5450
30.6600	11899.5775
30.6700	11966.2875
30.6800	12099.1650
30.6900	12232.4175
30.7000	12200.2475
30.7100	12596.7775
30.7200	12798.2700
30.7300	11957.8600
30.7400	12148.0325
30.7500	12281.9425
30.7600	11805.3325
30.7700	11865.8925
30.7800	11751.4250
30.7900	11963.8900
30.8000	12311.9725
30.8100	12086.6025
30.8200	11442.8250
30.8300	11564.6400
30.8400	12189.9975
30.8500	11675.4075
30.8600	12059.8725
30.8700	12312.2725
30.8800	11613.0225
30.8900	11600.0000
30.9000	12008.6000
30.9100	12359.6825
30.9200	12546.2325
30.9300	12794.7125
30.9400	12310.8700
30.9500	11860.0500
30.9600	12338.5350
30.9700	12122.1550
30.9800	11677.5200
30.9900	11390.3350
31.0000	11886.9250
31.0100	12419.5175
31.0200	12903.8600
31.0300	12284.2750
31.0400	12185.6400
31.0500	12248.1150
31.0600	11893.9200
31.0700	11770.1050
31.0800	12251.6350
31.0900	12266.6675
31.1000	11830.7300
31.1100	11735.9875
31.1200	12071.9800
31.1300	11986.6375
31.1400	11983.3325
31.1500	11677.5025
31.1600	11698.8400
31.1700	12230.5250
31.1800	12089.3325
31.1900	12067.2775
31.2000	12355.5100
31.2100	11548.7825
31.2200	12173.7750
31.2300	12151.9475
31.2400	11909.8900
31.2500	11963.9900
31.2600	12222.4650
31.2700	12600.8175
31.2800	12472.9575
31.2900	12067.7225
31.3000	11810.7825
31.3100	12182.5125
31.3200	12024.7900
31.3300	12494.2150
31.3400	12087.1400
31.3500	12034.8700
31.3600	12081.0000
31.3700	12416.7850
31.3800	12195.3000
31.3900	12040.6025
31.4000	12318.6150
31.4100	11731.4450
31.4200	11399.2450
31.4300	11604.8050
31.4400	12106.7625
31.4500	11548.7475
31.4600	11974.5700
31.4700	11905.3200
31.4800	11253.4300
31.4900	11878.5925
31.5000	12278.9225
31.5100	12677.7675
31.5200	11929.2075
31.5300	12370.6725
31.5400	12525.6850
31.5500	12454.8300
31.5600	12324.4725
31.5700	12034.4075
31.5800	11922.6400
31.5900	12308.2000
31.6000	12802.8775
31.6100	12364.0850
31.6200	12083.2250
31.6300	12160.3975
31.6400	12791.1475
31.6500	11866.0000
31.6600	12205.4000
31.6700	12404.7400
31.6800	12572.3925
31.6900	12178.7025
31.7000	11901.1550
31.7100	12365.1650
31.7200	12198.0700
31.7300	12074.6700
31.7400	12144.2325
31.7500	12305.0350
31.7600	12440.6150
31.7700	12450.0000
31.7800	11970.3075
31.7900	11948.7975
31.8000	12042.7250
31.8100	11818.3350
31.8200	11614.7850
31.8300	12263.2600
31.8400	12301.2525
31.8500	12176.7600
31.8600	12289.8275
31.8700	11930.7550
31.8800	11484.8650
31.8900	12126.0850
31.9000	11999.0650
31.9100	12689.2425
31.9200	12611.9750
31.9300	12155.5425
31.9400	11886.9225
31.9500	11759.5225
31.9600	11826.4825
31.9700	12154.3550
31.9800	12122.2250
31.9900	11963.9950
32.0000	11568.5700
32.0100	11563.8275
32.0200	11749.5175
32.0300	12406.2300
32.0400	12603.6275
32.0500	12130.0100
32.0600	12676.0625
32.0700	12596.6375
32.0800	12036.9075
32.0900	11558.6100
32.1000	11789.5250
32.1100	11998.4550
32.1200	12213.4750
32.1300	12293.8500
32.1400	12163.9250
32.1500	11802.4775
32.1600	12098.8650
32.1700	12223.8725
32.1800	12037.2900
32.1900	11926.2450
32.2000	11826.3025
32.2100	11771.5150
32.2200	11631.2975
32.2300	12413.3150
32.2400	12680.2550
32.2500	12429.7950
32.2600	11964.9525
32.2700	12066.5850
32.2800	12143.2600
32.2900	11970.3350
32.3000	11680.6775
32.3100	12367.7200
32.3200	12539.6550
32.3300	12445.4700
32.3400	12672.1025
32.3500	12222.7750
32.3600	12211.3775
32.3700	12142.1975
32.3800	12505.4275
32.3900	12475.6300
32.4000	12570.7150
32.4100	12301.1000
32.4200	12014.3100
32.4300	11642.1325
32.4400	11718.6000
32.4500	12696.3175
32.4600	12579.7800
32.4700	11455.1300
32.4800	11701.0950
32.4900	12163.7275
32.5000	12689.1825
32.5100	12646.7050
32.5200	12176.1900
32.5300	11880.8800
32.5400	11702.7300
32.5500	11830.5050
32.5600	12276.5125
32.5700	12156.9625
32.5800	12250.8350
32.5900	11885.0400
32.6000	11774.6600
32.6100	12426.2925
32.6200	12399.4775
32.6300	12090.5575
32.6400	11815.9350
32.6500	11885.6675
32.6600	12411.3300
32.6700	13038.1200
32.6800	12766.5100
32.6900	12410.4850
32.7000	12337.5250
32.7100	12260.5300
32.7200	12904.7825
32.7300	12418.3625
32.7400	12028.1800
32.7500	11649.3425
32.7600	12354.6025
32.7700	12075.1175
32.7800	11929.7150
32.7900	11887.7025
32.8000	12158.3100
32.8100	12142.1500
32.8200	12234.5050
32.8300	12611.0800
32.8400	12883.1675
32.8500	12729.1600
32.8600	12109.0325
32.8700	11915.8375
32.8800	12317.4350
32.8900	12656.6400
32.9000	12973.1200
32.9100	12901.7475
32.9200	12754.1350
32.9300	11671.7650
32.9400	12102.1000
32.9500	12142.6950
32.9600	11804.0600
32.9700	12265.0325
32.9800	12821.7925
32.9900	12171.3650
33.0000	11436.0800
33.0100	12003.9025
33.0200	12316.2750
33.0300	12549.4700
33.0400	12654.5250
33.0500	12410.5550
33.0600	12238.6975
33.0700	12429.8000
33.0800	12338.8750
33.0900	12373.4250
33.1000	11830.3250
33.1100	12356.8100
33.1200	13103.8750
33.1300	13216.6675
33.1400	12947.9925
33.1500	12108.6650
33.1600	12305.5750
33.1700	12409.0000
33.1800	12896.1275
33.1900	12800.1375
33.2000	12611.7625
33.2100	12344.1000
33.2200	12201.5600
33.2300	12042.8025
33.2400	12058.7975
33.2500	12389.4400
33.2600	12814.6200
33.2700	13023.4750
33.2800	12699.8900
33.2900	12339.4450
33.3000	12688.8975
33.3100	12235.6075
33.3200	12510.4025
33.3300	12220.4825
33.3400	11689.7800
33.3500	12059.9000
33.3600	12177.8525
33.3700	11584.9050
33.3800	12203.7475
33.3900	12600.1550
33.4000	12580.5600
33.4100	12760.9600
33.4200	12356.2125
33.4300	12155.7975
33.4400	12202.5775
33.4500	12327.3800
33.4600	12267.0225
33.4700	12070.3425
33.4800	12502.8750
33.4900	12751.8050
33.5000	12479.9375
33.5100	12113.4850
33.5200	12215.2550
33.5300	12139.9075
33.5400	12460.4625
33.5500	12011.1300
33.5600	12037.3250
33.5700	12588.1325
33.5800	12302.3200
33.5900	11928.8950
33.6000	12044.6850
33.6100	12124.3850
33.6200	12434.1675
33.6300	12267.7025
33.6400	11902.6025
33.6500	11983.4300
33.6600	12043.9375
33.6700	12213.5100
33.6800	12495.0900
33.6900	12495.5750
33.7000	12524.1225
33.7100	12193.6550
33.7200	11845.1175
33.7300	12244.6375
33.7400	12187.3025
33.7500	12420.9675
33.7600	12144.8650
33.7700	12201.9575
33.7800	12287.4100
33.7900	12300.0000
33.8000	12151.5000
33.8100	12224.5900
33.8200	12573.5375
33.8300	12542.2325
33.8400	12355.1300
33.8500	12182.1500
33.8600	12190.3250
33.8700	12267.1625
33.8800	12243.0650
33.8900	12474.7675
33.9000	12412.7025
33.9100	12423.5150
33.9200	12553.7900
33.9300	12462.9625
33.9400	12326.4150
33.9500	12032.8975
33.9600	12500.4850
33.9700	12553.3175
33.9800	13039.7275
33.9900	12567.4250
34.0000	12736.0300
34.0100	12377.8600
34.0200	12014.2025
34.0300	11458.7175
34.0400	11930.4050
34.0500	11937.4875
34.0600	11635.0200
34.0700	12294.8300
34.0800	12536.2525
34.0900	12285.6000
34.1000	12163.8250
34.1100	11885.9850
34.1200	11961.7700
34.1300	12131.8150
34.1400	12127.1500
34.1500	12274.6125
34.1600	12395.5825
34.1700	12495.5250
34.1800	12503.5325
34.1900	12395.0100
34.2000	12340.4375
34.2100	12818.2000
34.2200	12295.2575
34.2300	11750.2800
34.2400	11937.6650
34.2500	12369.4500
34.2600	12492.7800
34.2700	12708.7475
34.2800	12284.2925
34.2900	12123.9450
34.3000	12246.8450
34.3100	12465.4500
34.3200	12269.6900
34.3300	12122.0650
34.3400	11723.5950
34.3500	11850.1250
34.3600	12253.6350
34.3700	12116.8875
34.3800	12593.5250
34.3900	12724.1375
34.4000	12535.7600
34.4100	12677.0175
34.4200	12539.7925
34.4300	12161.0050
34.4400	11834.7650
34.4500	11869.6575
34.4600	12080.1000
34.4700	11940.5125
34.4800	12153.0800
34.4900	11925.2800
34.5000	11666.5950
34.5100	12065.2400
34.5200	12353.6825
34.5300	12336.0150
34.5400	12291.0925
34.5500	11938.3275
34.5600	12024.8600
34.5700	12848.8650
34.5800	12866.5950
34.5900	12876.4375
34.6000	12950.9200
34.6100	12839.4600
34.6200	12482.2250
34.6300	12421.4375
34.6400	12458.7175
34.6500	12365.2075
34.6600	12244.6250
34.6700	12533.2450
34.6800	12316.9925
34.6900	12039.6500
34.7000	11844.3550
34.7100	11888.3750
34.7200	12168.9750
34.7300	12464.2975
34.7400	12243.6200
34.7500	12061.8925
34.7600	12838.2700
34.7700	12748.1075
34.7800	12532.8700
34.7900	12663.1300
34.8000	12729.2050
34.8100	12633.0975
34.8200	13301.1125
34.8300	13070.4525
34.8400	12329.1300
34.8500	12245.7550
34.8600	12495.5225
34.8700	12579.1400
34.8800	12483.6325
34.8900	12238.2975
34.9000	12490.1975
34.9100	12401.0550
34.9200	12556.9750
34.9300	12360.2050
34.9400	12130.2075
34.9500	12207.2925
34.9600	12188.0675
34.9700	11832.4925
34.9800	12384.5025
34.9900	12839.1075
35.0000	12509.1725
35.0100	12304.9725
35.0200	11913.4550
35.0300	12276.1225
35.0400	12499.2400
35.0500	12332.1575
35.0600	12659.9850
35.0700	12235.0425
35.0800	12327.8650
35.0900	12089.9800
35.1000	12407.7800
35.1100	12762.5650
35.1200	12551.9475
35.1300	12327.7525
35.1400	12564.2825
35.1500	12752.1050
35.1600	12832.1175
35.1700	12642.8275
35.1800	12737.1475
35.1900	12921.6775
35.2000	12978.8250
35.2100	12983.3325
35.2200	12898.3600
35.2300	12587.6825
35.2400	12907.5400
35.2500	12679.1225
35.2600	12605.9400
35.2700	12403.5900
35.2800	12908.6975
35.2900	12747.0050
35.3000	12503.4925
35.3100	12478.7200
35.3200	12447.2000
35.3300	12601.8225
35.3400	12798.9475
35.3500	12585.6500
35.3600	12471.3275
35.3700	12382.6875
35.3800	12601.7375
35.3900	12316.7000
35.4000	12190.6050
35.4100	12271.7550
35.4200	12001.2575
35.4300	11751.9900
35.4400	12057.9225
35.4500	12295.3700
35.4600	12404.8050
35.4700	12564.2600
35.4800	12557.2025
35.4900	12153.0600
35.5000	12106.8675
35.5100	12209.3225
35.5200	12375.5950
35.5300	12362.2600
35.5400	12534.5500
35.5500	12876.8575
35.5600	12616.9925
35.5700	12147.8500
35.5800	12087.4575
35.5900	11951.6200
35.6000	12118.9275
35.6100	12428.5300
35.6200	12693.0800
35.6300	12555.1425
35.6400	12513.6350
35.6500	12427.7400
35.6600	12430.2250
35.6700	12953.6875
35.6800	13330.5275
35.6900	12862.0375
35.7000	12539.8500
35.7100	12453.2950
35.7200	12456.6675
35.7300	12583.2375
35.7400	12505.2075
35.7500	12403.4475
35.7600	12511.2525
35.7700	12996.5900
35.7800	13125.2825
35.7900	12798.3800
35.8000	12840.5375
35.8100	12939.8300
35.8200	12429.2350
35.8300	12142.1850
35.8400	12301.5275
35.8500	11956.1925
35.8600	11974.2950
35.8700	12550.7400
35.8800	12570.8925
35.8900	12080.5950
35.9000	12681.8225
35.9100	12527.8600
35.9200	12162.2575
35.9300	12489.9550
35.9400	12391.6300
35.9500	12358.2700
35.9600	12777.5575
35.9700	12641.3425
35.9800	12522.8450
35.9900	12179.5300
36.0000	11971.0525
36.0100	11995.5775
36.0200	12107.7450
36.0300	12047.6200
36.0400	12125.0275
36.0500	12365.0425
36.0600	12597.5175
36.0700	12643.9900
36.0800	12588.0175
36.0900	12827.0125
36.1000	12746.4200
36.1100	12322.2825
36.1200	12256.9975
36.1300	12243.5900
36.1400	12498.4825
36.1500	12914.9150
36.1600	12847.4300
36.1700	12705.0225
36.1800	12840.6275
36.1900	13129.9575
36.2000	12627.6400
36.2100	12355.7475
36.2200	12624.2175
36.2300	12414.3450
36.2400	12082.3125
36.2500	12480.3050
36.2600	12694.3450
36.2700	12627.5775
36.2800	12488.5800
36.2900	12455.5975
36.3000	12633.5150
36.3100	12338.7925
36.3200	12172.2100
36.3300	12505.0975
36.3400	12189.9700
36.3500	11994.3075
36.3600	12337.6200
36.3700	12710.1025
36.3800	12794.5700
36.3900	12639.8200
36.4000	12577.6975
36.4100	12638.4375
36.4200	12446.4375
36.4300	12476.3625
36.4400	12703.9000
36.4500	12816.2850
36.4600	12624.8225
36.4700	12319.2950
36.4800	12775.4100
36.4900	12968.1475
36.5000	12358.8725
36.5100	12350.7925
36.5200	12914.9050
36.5300	13078.7875
36.5400	13017.3000
36.5500	12444.5725
36.5600	12117.3550
36.5700	11991.2775
36.5800	12085.4150
36.5900	11862.7650
36.6000	11428.8900
36.6100	11608.3875
36.6200	11934.8950
36.6300	12276.2650
36.6400	12805.7300
36.6500	12984.2725
36.6600	12869.5675
36.6700	12838.2250
36.6800	12386.8800
36.6900	12316.2700
36.7000	12631.7025
36.7100	12610.3475
36.7200	12404.5350
36.7300	12451.2975
36.7400	12280.9425
36.7500	12663.8650
36.7600	13035.5700
36.7700	12527.6075
36.7800	11896.3325
36.7900	12388.7850
36.8000	12841.2825
36.8100	12542.5300
36.8200	12211.6700
36.8300	12569.2300
36.8400	12625.4650
36.8500	12548.5050
36.8600	12704.5175
36.8700	12613.8175
36.8800	12421.3975
36.8900	12440.7000
36.9000	12895.4475
36.9100	12985.5225
36.9200	13132.0700
36.9300	12929.4050
36.9400	12785.9850
36.9500	12511.5575
36.9600	12617.1525
36.9700	12478.7600
36.9800	12258.0275
36.9900	12233.3325
37.0000	12474.2575
37.0100	12501.5425
37.0200	12506.5300
37.0300	12758.9475
37.0400	12831.1425
37.0500	12883.4325
37.0600	12777.0375
37.0700	12714.5650
37.0800	12358.8825
37.0900	12154.1175
37.1000	12218.5825
37.1100	12177.3825
37.1200	12319.8975
37.1300	12309.0675
37.1400	12129.8700
37.1500	12294.0850
37.1600	12743.1725
37.1700	12933.3325
37.1800	12428.1600
37.1900	12281.4750
37.2000	12743.5300
37.2100	12853.5625
37.2200	12598.4200
37.2300	12503.8600
37.2400	12516.6675
37.2500	12352.7375
37.2600	11973.6175
37.2700	11861.3625
37.2800	12257.6325
37.2900	12575.2150
37.3000	12653.7325
37.3100	12615.7125
37.3200	12430.6100
37.3300	12465.5750
37.3400	12600.8150
37.3500	12257.6325
37.3600	12726.8150
37.3700	12990.7525
37.3800	12664.1325
37.3900	12654.7450
37.4000	12703.0075
37.4100	12713.6325
37.4200	12602.1600
37.4300	12556.9900
37.4400	12613.5500
37.4500	12492.4525
37.4600	12601.0750
37.4700	12954.3150
37.4800	13059.8575
37.4900	12862.8850
37.5000	12880.2250
37.5100	12846.5675
37.5200	12646.6775
37.5300	12916.3175
37.5400	13030.2300
37.5500	12630.9025
37.5600	12048.0475
37.5700	11829.8600
37.5800	11929.5550
37.5900	12261.5250
37.6000	12658.4525
37.6100	12571.9025
37.6200	12495.9325
37.6300	12728.1825
37.6400	12939.0100
37.6500	13088.9275
37.6600	12932.8200
37.6700	12280.3325
37.6800	12130.4075
37.6900	12611.2275
37.7000	12554.9325
37.7100	12664.4475
37.7200	12736.0725
37.7300	12515.6325
37.7400	12462.7325
37.7500	12307.1100
37.7600	12232.2400
37.7700	12491.4250
37.7800	12708.5775
37.7900	12437.8700
37.8000	12128.9625
37.8100	12485.3125
37.8200	12890.3300
37.8300	12752.8750
37.8400	12891.2650
37.8500	12983.6025
37.8600	12531.7525
37.8700	12489.3450
37.8800	12833.7800
37.8900	12657.4300
37.9000	12259.5500
37.9100	12210.4975
37.9200	12363.0325
37.9300	12404.4500
37.9400	12258.2925
37.9500	12320.4175
37.9600	12414.1325
37.9700	12313.6775
37.9800	12508.7250
37.9900	12757.4400
38.0000	12847.8225
38.0100	12548.8925
38.0200	12252.2675
38.0300	12560.0125
38.0400	12730.9100
38.0500	12400.1225
38.0600	12485.3125
38.0700	13070.5550
38.0800	12941.8250
38.0900	12547.9825
38.1000	12559.1300
38.1100	12484.1500
38.1200	12336.0500
38.1300	12630.6625
38.1400	13015.4725
38.1500	12880.9275
38.1600	12407.9625
38.1700	12559.7975
38.1800	13028.6500
38.1900	12715.7725
38.2000	12207.1275
38.2100	12261.4725
38.2200	12512.4000
38.2300	12366.0550
38.2400	12108.5425
38.2500	12554.3525
38.2600	13127.2875
38.2700	13033.6175
38.2800	12524.0450
38.2900	12192.2350
38.3000	12189.1050
38.3100	12456.2025
38.3200	12642.6100
38.3300	12742.6825
38.3400	12594.4425
38.3500	12046.6500
38.3600	11953.3125
38.3700	12522.8975
38.3800	12868.4475
38.3900	12818.8300
38.4000	12831.1075
38.4100	12699.3975
38.4200	12834.8250
38.4300	12965.6975
38.4400	12745.7825
38.4500	12340.1750
38.4600	12383.7200
38.4700	12634.9525
38.4800	12531.2525
38.4900	12478.9600
38.5000	12626.0650
38.5100	12598.2675
38.5200	12481.8025
38.5300	12757.5450
38.5400	12818.3800
38.5500	12566.8725
38.5600	12573.9650
38.5700	12487.0225
38.5800	12277.6375
38.5900	12261.8500
38.6000	12444.4425
38.6100	12819.1925
38.6200	12835.1150
38.6300	12747.6750
38.6400	12906.5875
38.6500	12632.9850
38.6600	12306.4100
38.6700	12319.1950
38.6800	12448.5225
38.6900	12810.7150
38.7000	13094.6950
38.7100	12883.2900
38.7200	12746.9575
38.7300	12834.4925
38.7400	12832.1925
38.7500	12567.6150
38.7600	12518.8300
38.7700	12435.8650
38.7800	12206.7300
38.7900	12608.5800
38.8000	12903.6800
38.8100	12789.1250
38.8200	12591.0100
38.8300	12220.5775
38.8400	12078.3725
38.8500	12054.0775
38.8600	12062.5100
38.8700	12449.7250
38.8800	12847.4700
38.8900	12923.6875
38.9000	12821.1400
38.9100	12785.0125
38.9200	12886.6225
38.9300	12757.8150
38.9400	12600.7875
38.9500	12677.6925
38.9600	12872.6825
38.9700	12912.9950
38.9800	12920.2500
38.9900	13112.8775
39.0000	13207.9925
39.0100	13165.3375
39.0200	13003.4850
39.0300	12606.6050
39.0400	12479.5850
39.0500	12470.5475
39.0600	12246.5425
39.0700	12089.7125
39.0800	12325.8625
39.0900	12651.5700
39.1000	12605.5500
39.1100	12593.8650
39.1200	12495.2925
39.1300	12530.2125
39.1400	12708.1150
39.1500	12691.4575
39.1600	12597.9975
39.1700	12670.1150
39.1800	12705.9575
39.1900	12625.5225
39.2000	12904.9600
39.2100	12810.4025
39.2200	12407.0025
39.2300	12494.3100
39.2400	12836.2000
39.2500	12872.9325
39.2600	12741.7800
39.2700	13062.1875
39.2800	13130.6625
39.2900	12815.8000
39.3000	12708.1000
39.3100	12473.2700
39.3200	11956.0950
39.3300	11926.7075
39.3400	12727.7125
39.3500	13124.4850
39.3600	12824.4625
39.3700	12808.6550
39.3800	12899.9350
39.3900	12583.3475
39.4000	12491.4925
39.4100	12733.1550
39.4200	12941.2675
39.4300	12983.6875
39.4400	12908.2900
39.4500	12850.4225
39.4600	12791.6050
39.4700	13014.8450
39.4800	13026.9700
39.4900	13006.3225
39.5000	12878.7500
39.5100	12912.0550
39.5200	12995.6375
39.5300	12568.6200
39.5400	12556.3700
39.5500	12937.3425
39.5600	13200.0000
39.5700	13150.9400
39.5800	12920.3075
39.5900	12561.9900
39.6000	12472.9900
39.6100	12810.9225
39.6200	13009.7350
39.6300	12893.1275
39.6400	12597.9725
39.6500	12155.4250
39.6600	12225.3525
39.6700	12718.9150
39.6800	12973.7400
39.6900	12879.4300
39.7000	12676.8850
39.7100	12632.7775
39.7200	12746.5625
39.7300	12777.6575
39.7400	12708.0300
39.7500	12636.4575
39.7600	12766.3325
39.7700	12783.9000
39.7800	12829.8275
39.7900	12869.7800
39.8000	12543.4450
39.8100	12444.2150
39.8200	12351.4900
39.8300	12714.2675
39.8400	13150.0000
39.8500	13118.2600
39.8600	12916.8825
39.8700	12685.8275
39.8800	12712.4250
39.8900	12902.7050
39.9000	12945.6400
39.9100	12906.0825
39.9200	12871.2525
39.9300	12979.9875
39.9400	13168.5700
39.9500	12992.0525
39.9600	12786.2900
39.9700	12576.6975
39.9800	12517.3500
39.9900	12759.4050
40.0000	12844.3025
40.0100	13010.5350
40.0200	13078.6425
40.0300	12867.7725
40.0400	12601.3000
40.0500	12386.5375
40.0600	12916.4450
40.0700	12976.3025
40.0800	12341.6725
40.0900	12286.2300
40.1000	12652.3300
40.1100	12890.7875
40.1200	12814.1475
40.1300	12896.1700
40.1400	13003.8050
40.1500	12882.3950
40.1600	12674.3350
40.1700	12614.3850
40.1800	12594.5525
40.1900	12781.3250
40.2000	13130.4575
40.2100	13284.1825
40.2200	13280.9425
40.2300	13188.3700
40.2400	12643.0175
40.2500	12491.3025
40.2600	12730.3375
40.2700	12728.7875
40.2800	12615.2275
40.2900	12669.3925
40.3000	12969.2400
40.3100	13095.6225
40.3200	13019.8650
40.3300	12862.9350
40.3400	12581.3700
40.3500	12416.6675
40.3600	12649.1525
40.3700	12828.4575
40.3800	12804.7575
40.3900	12903.4375
40.4000	12792.0100
40.4100	12782.0300
40.4200	12734.3575
40.4300	12490.4775
40.4400	12424.0975
40.4500	12559.5300
40.4600	12931.7000
40.4700	13088.9025
40.4800	12942.6025
40.4900	12866.8275
40.5000	12598.8050
40.5100	12381.4125
40.5200	12628.2925
40.5300	12968.1575
40.5400	12959.8600
40.5500	12646.4950
40.5600	12652.5600
40.5700	12965.4125
40.5800	12878.0575
40.5900	12842.6950
40.6000	12847.9275
40.6100	12567.8375
40.6200	12277.9750
40.6300	12530.8900
40.6400	12845.2675
40.6500	13011.5675
40.6600	12823.9100
40.6700	12660.0950
40.6800	12832.3425
40.6900	12723.3650
40.7000	12643.0000
40.7100	13199.4700
40.7200	13360.9975
40.7300	13451.5750
40.7400	13754.6150
40.7500	13515.8775
40.7600	13307.3025
40.7700	13225.9375
40.7800	13159.5850
40.7900	13321.4500
40.8000	13219.1700
40.8100	13005.1575
40.8200	12712.4200
40.8300	12585.5200
40.8400	12846.2075
40.8500	13126.2450
40.8600	12968.0050
40.8700	12985.8625
40.8800	13255.0825
40.8900	13054.4225
40.9000	12946.0650
40.9100	13029.6250
40.9200	13235.5850
40.9300	13341.0850
40.9400	13155.0900
40.9500	13504.3450
40.9600	13176.5450
40.9700	12697.3075
40.9800	12814.3750
40.9900	12880.2900
41.0000	12873.8475
41.0100	12853.9600
41.0200	12629.1625
41.0300	12711.0025
41.0400	12873.5950
41.0500	13000.9925
41.0600	13187.4050
41.0700	13120.0025
41.0800	12735.0700
41.0900	12541.7550
41.1000	13007.4550
41.1100	13233.1875
41.1200	13039.2150
41.1300	13013.7100
41.1400	13170.2650
41.1500	13366.6675
41.1600	13141.2750
41.1700	12939.4575
41.1800	13143.9200
41.1900	12965.5650
41.2000	12724.7675
41.2100	12867.2775
41.2200	12855.6425
41.2300	12536.4100
41.2400	12416.4475
41.2500	13010.3200
41.2600	13227.7350
41.2700	12909.5650
41.2800	12681.7225
41.2900	12345.9375
41.3000	12283.8125
41.3100	12497.3425
41.3200	12854.2150
41.3300	13093.1925
41.3400	12899.6975
41.3500	12519.8150
41.3600	12343.3150
41.3700	12609.8175
41.3800	13052.6575
41.3900	13572.7875
41.4000	13697.1100
41.4100	13434.1800
41.4200	13094.3950
41.4300	12843.6850
41.4400	12783.3325
41.4500	12921.7550
41.4600	13172.8325
41.4700	13049.2275
41.4800	12602.4925
41.4900	12540.2050
41.5000	12794.0300
41.5100	12766.0450
41.5200	12757.8575
41.5300	12490.4600
41.5400	12294.8825
41.5500	12292.9800
41.5600	12197.5250
41.5700	12246.1025
41.5800	12576.2225
41.5900	13324.0900
41.6000	13218.6425
41.6100	12864.6900
41.6200	12679.6100
41.6300	13036.0000
41.6400	12828.5150
41.6500	12636.4225
41.6600	12849.8700
41.6700	12902.6200
41.6800	13334.4850
41.6900	13313.3525
41.7000	12818.3525
41.7100	12614.1950
41.7200	12761.7375
41.7300	12973.6375
41.7400	12799.1575
41.7500	12710.3200
41.7600	12902.8525
41.7700	13182.6850
41.7800	12859.7275
41.7900	12599.2800
41.8000	13024.7900
41.8100	13328.8750
41.8200	13121.9825
41.8300	12883.3325
41.8400	13096.6650
41.8500	13099.0825
41.8600	12522.9250
41.8700	12670.8375
41.8800	12806.3675
41.8900	12731.0425
41.9000	12847.9875
41.9100	12791.7950
41.9200	12843.1500
41.9300	12925.5775
41.9400	12781.4175
41.9500	12651.0275
41.9600	12687.2000
41.9700	13138.2175
41.9800	13292.0200
41.9900	13268.4600
42.0000	13078.7575
42.0100	12822.7525
42.0200	13021.0750
42.0300	13122.4300
42.0400	13333.3325
42.0500	13137.9575
42.0600	12806.0975
42.0700	12786.2200
42.0800	12909.6950
42.0900	13076.9775
42.1000	12869.7250
42.1100	13036.3100
42.1200	13192.4700
42.1300	13101.6675
42.1400	13077.0025
42.1500	13315.8950
42.1600	13562.0350
42.1700	13373.0000
42.1800	13108.0275
42.1900	13401.8900
42.2000	13487.5650
42.2100	13209.0700
42.2200	12855.4875
42.2300	12572.6275
42.2400	12773.8525
42.2500	13253.4200
42.2600	13363.4300
42.2700	13205.6150
42.2800	13342.9800
42.2900	13193.5500
42.3000	12970.4700
42.3100	12987.4425
42.3200	12939.9625
42.3300	12663.7250
42.3400	12879.2325
42.3500	13093.2025
42.3600	13032.4250
42.3700	13023.4025
42.3800	12961.5000
42.3900	12889.1950
42.4000	13297.2950
42.4100	13418.0375
42.4200	12888.8275
42.4300	12493.3200
42.4400	12391.2375
42.4500	12842.5950
42.4600	12999.3300
42.4700	12908.9525
42.4800	12909.5075
42.4900	13099.4000
42.5000	13060.9200
42.5100	12912.2450
42.5200	12839.1550
42.5300	13394.6200
42.5400	13578.0325
42.5500	13273.7500
42.5600	13411.8350
42.5700	13466.6675
42.5800	13381.3950
42.5900	13040.6825
42.6000	12728.3450
42.6100	12641.8050
42.6200	12660.6400
42.6300	13255.9150
42.6400	13378.9275
42.6500	13561.4825
42.6600	13588.5575
42.6700	13303.1550
42.6800	12967.7325
42.6900	13255.9850
42.7000	13472.8900
42.7100	13594.0075
42.7200	13160.2175
42.7300	12627.7325
42.7400	12750.1150
42.7500	13333.1525
42.7600	13711.3700
42.7700	13328.2675
42.7800	13066.5850
42.7900	13100.0000
42.8000	12995.2625
42.8100	12805.3525
42.8200	12899.4725
42.8300	13197.6100
42.8400	13550.6675
42.8500	13291.2650
42.8600	12879.2125
42.8700	12820.0775
42.8800	13181.1225
42.8900	13574.5000
42.9000	13753.2625
42.9100	13319.7525
42.9200	12914.5200
42.9300	12682.0375
42.9400	12907.6200
42.9500	13080.3300
42.9600	12991.6000
42.9700	13264.0400
42.9800	13395.7250
42.9900	13332.7625
43.0000	13318.4500
43.0100	13098.9775
43.0200	12780.5575
43.0300	12852.0300
43.0400	13375.2575
43.0500	13329.8025
43.0600	13003.8425
43.0700	13014.3925
43.0800	13052.0100
43.0900	13280.7900
43.1000	12895.5475
43.1100	12934.3575
43.1200	13385.1675
43.1300	13940.3825
43.1400	13820.3425
43.1500	13735.7500
43.1600	13656.3450
43.1700	12977.2475
43.1800	12432.3225
43.1900	12847.0625
43.2000	13480.4075
43.2100	12976.1825
43.2200	12850.0000
43.2300	12870.7200
43.2400	12927.0125
43.2500	12727.9075
43.2600	12398.3650
43.2700	12952.0525
43.2800	13376.9500
43.2900	13333.2550
43.3000	13362.7675
43.3100	13572.1425
43.3200	13102.6650
43.3300	12946.5700
43.3400	12872.3075
43.3500	13170.3550
43.3600	13181.1000
43.3700	13368.8825
43.3800	13973.2025
43.3900	13848.8400
43.4000	13424.7500
43.4100	13053.9325
43.4200	13387.8650
43.4300	13728.0300
43.4400	13584.9400
43.4500	13590.1000
43.4600	13463.1200
43.4700	12850.0550
43.4800	13060.7475
43.4900	14104.9825
43.5000	13659.0125
43.5100	12871.4150
43.5200	13515.2850
43.5300	13482.8525
43.5400	13693.9400
43.5500	13812.9975
43.5600	13492.7300
43.5700	13311.7450
43.5800	13285.2575
43.5900	13318.6900
43.6000	13498.0300
43.6100	13401.2675
43.6200	13239.6150
43.6300	13631.2950
43.6400	13540.0800
43.6500	13204.1650
43.6600	13118.7725
43.6700	13068.7950
43.6800	13217.2025
43.6900	13705.3150
43.7000	13631.1725
43.7100	13308.1725
43.7200	13461.2050
43.7300	13398.5600
43.7400	13477.2100
43.7500	13110.2500
43.7600	13409.3225
43.7700	13409.8000
43.7800	13547.5400
43.7900	12919.1450
43.8000	12835.3825
43.8100	13313.4975
43.8200	13705.1275
43.8300	13540.5475
43.8400	13629.9175
43.8500	13921.3775
43.8600	13848.6650
43.8700	13736.6525
43.8800	14046.8900
43.8900	14044.9475
43.9000	13817.4650
43.9100	14098.6650
43.9200	14019.7325
43.9300	13378.6825
43.9400	13533.8600
43.9500	14036.2200
43.9600	14258.3300
43.9700	14417.5075
43.9800	14563.8425
43.9900	14383.4650
44.0000	13959.2575
44.0100	14158.8275
44.0200	13773.3575
44.0300	13930.0475
44.0400	13824.1925
44.0500	13991.6325
44.0600	14545.5525
44.0700	14543.8750
44.0800	14289.3150
44.0900	14610.2600
44.1000	14909.2675
44.1100	14790.9625
44.1200	14644.8700
44.1300	14591.3850
44.1400	15247.9050
44.1500	15115.4225
44.1600	15383.3325
44.1700	15499.6600
44.1800	15696.0650
44.1900	15522.7475
44.2000	16043.4925
44.2100	16211.1050
44.2200	16006.6025
44.2300	15957.1850
44.2400	15613.9650
44.2500	15949.5650
44.2600	16080.4375
44.2700	16122.5650
44.2800	16790.5875
44.2900	17214.0350
44.3000	17308.7575
44.3100	17346.4475
44.3200	17575.3550
44.3300	18256.0850
44.3400	18767.4375
44.3500	19221.5825
44.3600	19688.0450
44.3700	20228.0775
44.3800	21141.9200
44.3900	22153.7275
44.4000	22413.7650
44.4100	23649.2325
44.4200	25119.0425
44.4300	26393.2450
44.4400	27372.0700
44.4500	28919.6325
44.4600	30905.6050
44.4700	33005.9975
44.4800	34291.7525
44.4900	36223.6275
44.5000	38489.4475
44.5100	40115.0825
44.5200	41668.3300
44.5300	42331.9850
44.5400	43326.8750
44.5500	43681.3975
44.5600	42820.4875
44.5700	42507.8600
44.5800	42120.8075
44.5900	41754.0600
44.6000	40525.3400
44.6100	39820.7675
44.6200	39373.3275
44.6300	37676.0450
44.6400	36778.5375
44.6500	35058.6475
44.6600	33432.5525
44.6700	32447.4650
44.6800	31779.6950
44.6900	30477.2625
44.7000	28977.6050
44.7100	27593.5350
44.7200	26528.8725
44.7300	25719.3550
44.7400	24456.1650
44.7500	23022.5775
44.7600	21998.4975
44.7700	20789.4200
44.7800	20503.2425
44.7900	19861.9525
44.8000	18707.6050
44.8100	18196.1125
44.8200	17483.9875
44.8300	17433.3325
44.8400	17437.3225
44.8500	17406.2025
44.8600	17171.2800
44.8700	16747.6475
44.8800	16315.1850
44.8900	16142.0950
44.9000	16041.6950
44.9100	15866.9600
44.9200	16087.2650
44.9300	15990.1100
44.9400	15515.8075
44.9500	15109.8700
44.9600	15056.7525
44.9700	15035.9275
44.9800	14751.6700
44.9900	14820.0825
45.0000	14705.4175
45.0100	14694.0875
45.0200	14356.8800
45.0300	14705.0050
45.0400	14469.2250
45.0500	14224.5975
45.0600	13757.6650
45.0700	13905.7525
45.0800	14198.2925
45.0900	13788.5650
45.1000	13727.1725
45.1100	13714.5550
45.1200	13914.3825
45.1300	13838.6500
45.1400	13645.1725
45.1500	13210.8975
45.1600	13616.1025
45.1700	13945.0625
45.1800	14055.0225
45.1900	13716.6800
45.2000	13337.2600
45.2100	14291.2100
45.2200	14427.2325
45.2300	14018.5650
45.2400	14012.9150
45.2500	13729.6750
45.2600	13592.6150
45.2700	13555.6100
45.2800	13472.5275
45.2900	13338.6950
45.3000	13365.3650
45.3100	13186.9900
45.3200	13243.8050
45.3300	13498.3725
45.3400	13842.7275
45.3500	13921.9225
45.3600	14194.9450
45.3700	13650.3475
45.3800	13219.6075
45.3900	13908.9700
45.4000	14107.8425
45.4100	13675.4675
45.4200	13218.1725
45.4300	13574.9450
45.4400	13307.1350
45.4500	13425.8975
45.4600	13688.4950
45.4700	13499.2975
45.4800	13873.7450
45.4900	13945.9225
45.5000	14067.3075
45.5100	13865.7400
45.5200	13785.9525
45.5300	13659.7300
45.5400	13411.3175
45.5500	13551.5775
45.5600	13631.0675
45.5700	13461.1525
45.5800	13469.4900
45.5900	12968.3800
45.6000	12518.5200
45.6100	12930.5650
45.6200	13842.9650
45.6300	14124.4025
45.6400	13843.6225
45.6500	13914.1375
45.6600	14057.2425
45.6700	14020.4625
45.6800	13431.6150
45.6900	13049.0725
45.7000	12944.8750
45.7100	13350.4825
45.7200	13550.8275
45.7300	13752.6750
45.7400	13446.2225
45.7500	13263.5225
45.7600	13433.5450
45.7700	13586.5625
45.7800	13326.6525
45.7900	13020.0250
45.8000	12986.5875
45.8100	13109.7425
45.8200	13511.5000
45.8300	14215.5350
45.8400	13303.6950
45.8500	13216.1975
45.8600	13363.1175
45.8700	13416.6675
45.8800	13321.9475
45.8900	13070.2275
45.9000	13561.7750
45.9100	13415.9775
45.9200	14065.7250
45.9300	14044.8450
45.9400	13367.7425
45.9500	13265.5225
45.9600	13454.6075
45.9700	13657.6900
45.9800	13463.6350
45.9900	13170.2250
46.0000	13399.7750
46.0100	13100.7725
46.0200	13093.6000
46.0300	13375.3225
46.0400	13483.3325
46.0500	13508.5475
46.0600	13516.0250
46.0700	13048.8100
46.0800	13047.1900
46.0900	13617.7075
46.1000	13330.2150
46.1100	13260.6575
46.1200	12991.8275
46.1300	12870.9400
46.1400	12909.4175
46.1500	13366.0275
46.1600	13537.1575
46.1700	13496.1325
46.1800	14238.1225
46.1900	14125.3625
46.2000	13294.6050
46.2100	13686.2150
46.2200	13507.4625
46.2300	13362.1450
46.2400	13497.0875
46.2500	13258.7975
46.2600	13545.7850
46.2700	13230.8775
46.2800	13003.6300
46.2900	13304.2525
46.3000	12845.7675
46.3100	12881.0725
46.3200	13423.8875
46.3300	13170.7600
46.3400	13296.2575
46.3500	13400.8550
46.3600	13208.7575
46.3700	12937.3025
46.3800	12625.3225
46.3900	12847.3275
46.4000	12664.2325
46.4100	13016.1900
46.4200	13226.7475
46.4300	13180.4675
46.4400	13390.7425
46.4500	13053.9275
46.4600	13613.3675
46.4700	13908.0450
46.4800	13875.2675
46.4900	13916.6675
46.5000	13773.9550
46.5100	13111.8100
46.5200	13343.7600
46.5300	13800.0000
46.5400	13749.0925
46.5500	13542.3250
46.5600	13702.1425
46.5700	13556.5425
46.5800	13935.5500
46.5900	13577.5275
46.6000	13405.6475
46.6100	13488.8400
46.6200	13419.4050
46.6300	13819.2900
46.6400	14019.7800
46.6500	13609.0275
46.6600	13125.2475
46.6700	13052.1325
46.6800	13396.0500
46.6900	13627.9525
46.7000	12750.0000
46.7100	12856.0025
46.7200	13486.7700
46.7300	13876.5250
46.7400	13550.9500
46.7500	13386.0250
46.7600	13459.0875
46.7700	13753.2700
46.7800	13533.6475
46.7900	12789.9975
46.8000	13119.7075
46.8100	13649.1575
46.8200	13053.1300
46.8300	12766.8450
46.8400	13154.5225
46.8500	13826.2825
46.8600	13911.6100
46.8700	13553.8975
46.8800	13258.4100
46.8900	13392.2425
46.9000	12988.2725
46.9100	13412.2800
46.9200	13093.4150
46.9300	13036.2500
46.9400	13370.3925
46.9500	13201.2925
46.9600	13635.9700
46.9700	13405.4250
46.9800	13053.9400
46.9900	13067.1200
47.0000	13490.2775
47.0100	13250.0000
47.0200	13297.8800
47.0300	13461.0900
47.0400	12894.2475
47.0500	13095.0200
47.0600	13434.8225
47.0700	13958.9700
47.0800	14113.1250
47.0900	13643.9000
47.1000	13841.9825
47.1100	13994.6550
47.1200	13537.3875
47.1300	13854.9025
47.1400	13861.3325
47.1500	13728.4575
47.1600	13665.9550
47.1700	13459.3900
47.1800	13419.0850
47.1900	13377.8325
47.2000	13175.1525
47.2100	13904.6650
47.2200	13744.7450
47.2300	13257.2625
47.2400	13571.4550
47.2500	13885.9725
47.2600	13278.1875
47.2700	13761.8150
47.2800	13812.1225
47.2900	13669.2300
47.3000	13648.9775
47.3100	13993.8825
47.3200	13603.3600
47.3300	13274.8025
47.3400	13067.6975
47.3500	13415.7225
47.3600	13528.9925
47.3700	13004.0425
47.3800	13238.8975
47.3900	13911.4425
47.4000	13985.6150
47.4100	13977.2375
47.4200	13849.2250
47.4300	13852.6475
47.4400	13208.4975
47.4500	13124.3050
47.4600	13626.9450
47.4700	13806.7175
47.4800	13863.4000
47.4900	13938.8650
47.5000	13835.5725
47.5100	13622.2600
47.5200	13554.4175
47.5300	13493.0275
47.5400	12985.6600
47.5500	13543.4300
47.5600	13484.7100
47.5700	13359.3750
47.5800	13232.5800
47.5900	13452.1650
47.6000	13401.8725
47.6100	13031.2775
47.6200	13438.7475
47.6300	13192.1800
47.6400	12861.9275
47.6500	13276.9450
47.6600	13250.3200
47.6700	13404.7775
47.6800	13592.7775
47.6900	13081.2275
47.7000	13104.4500
47.7100	13387.5975
47.7200	13508.2900
47.7300	13368.7075
47.7400	13552.3475
47.7500	13118.6200
47.7600	13204.6200
47.7700	12967.6575
47.7800	13583.0725
47.7900	13630.4825
47.8000	13165.9525
47.8100	13410.1625
47.8200	13461.0400
47.8300	13380.8250
47.8400	13944.5050
47.8500	13761.2375
47.8600	13579.9750
47.8700	13407.3775
47.8800	13264.4425
47.8900	13598.8050
47.9000	13433.0300
47.9100	13177.4150
47.9200	13143.1675
47.9300	13279.4100
47.9400	13687.4475
47.9500	13230.3075
47.9600	13344.9900
47.9700	13444.9550
47.9800	13485.0600
47.9900	13159.0175
48.0000	13404.6500
48.0100	12857.3950
48.0200	13349.5875
48.0300	13708.6175
48.0400	13474.9700
48.0500	13182.1200
48.0600	13446.5175
48.0700	13546.2450
48.0800	13458.6450
48.0900	13033.5850
48.1000	13337.1975
48.1100	13568.4450
48.1200	13051.8475
48.1300	13127.4600
48.1400	13589.1225
48.1500	13403.2750
48.1600	13700.0000
48.1700	13665.4450
48.1800	13383.3325
48.1900	13390.5600
48.2000	13426.5850
48.2100	13206.4050
48.2200	13063.8550
48.2300	13717.2825
48.2400	13586.8875
48.2500	13673.3650
48.2600	14089.9575
48.2700	13544.6100
48.2800	13249.9975
48.2900	13521.0950
48.3000	13402.7250
48.3100	13316.3325
48.3200	13606.9250
48.3300	13678.7425
48.3400	13814.2825
48.3500	14035.3525
48.3600	13555.1850
48.3700	13009.8575
48.3800	12948.3050
48.3900	13033.0675
48.4000	13936.8825
48.4100	14046.1550
48.4200	13386.5525
48.4300	13143.3425
48.4400	13409.9175
48.4500	13658.2800
48.4600	13662.3825
48.4700	13102.1675
48.4800	13881.6950
48.4900	13814.4200
48.5000	13326.8250
48.5100	13310.4400
48.5200	13739.2850
48.5300	13879.1700
48.5400	13203.8350
48.5500	13140.8725
48.5600	13680.1475
48.5700	13691.2575
48.5800	14031.1550
48.5900	13520.7300
48.6000	13385.8725
48.6100	13246.8725
48.6200	13221.3425
48.6300	13322.5625
48.6400	13857.3850
48.6500	13688.0625
48.6600	12932.0225
48.6700	13090.9825
48.6800	13241.3525
48.6900	13997.0000
48.7000	14127.2825
48.7100	14060.6375
48.7200	13959.4575
48.7300	13573.9350
48.7400	13812.1950
48.7500	13734.0050
48.7600	13441.4100
48.7700	13810.6825
48.7800	13245.0750
48.7900	13333.0400
48.8000	13032.8500
48.8100	13532.5900
48.8200	13373.1225
48.8300	13596.5125
48.8400	13400.5400
48.8500	13556.1950
48.8600	13260.9750
48.8700	13258.1000
48.8800	13881.9225
48.8900	13806.2150
48.9000	13144.4000
48.9100	13086.1225
48.9200	13175.0100
48.9300	13827.7350
48.9400	13961.0225
48.9500	14062.7475
48.9600	13819.6650
48.9700	13687.0850
48.9800	13942.4250
48.9900	14163.1275
49.0000	13299.4375
49.0100	12617.6900
49.0200	13571.3325
49.0300	13443.9575
49.0400	13549.4750
49.0500	13378.9700
49.0600	13683.8850
49.0700	13303.9175
49.0800	13356.5025
49.0900	13443.6925
49.1000	13582.1375
49.1100	13740.9925
49.1200	13458.8975
49.1300	13769.2125
49.1400	13763.2525
49.1500	13304.0500
49.1600	13132.4125
49.1700	12909.1625
49.1800	12916.2850
49.1900	14126.4450
49.2000	13798.7750
49.2100	13334.7175
49.2200	12987.1600
49.2300	13649.6175
49.2400	13419.9975
49.2500	13266.8975
49.2600	13532.5950
49.2700	14129.5900
49.2800	13686.9075
49.2900	14204.5900
49.3000	14644.5550
49.3100	13919.0150
49.3200	13950.0000
49.3300	13899.9750
49.3400	13243.7550
49.3500	13407.5375
49.3600	13734.4800
49.3700	13788.8175
49.3800	14303.0300
49.3900	14094.0475
49.4000	13755.1950
49.4100	13335.3050
49.4200	12965.7675
49.4300	13935.4700
49.4400	14621.4050
49.4500	13944.8850
49.4600	13386.8825
49.4700	13231.5450
49.4800	13719.0525
49.4900	14166.5575
49.5000	13209.6450
49.5100	13367.0600
49.5200	13580.5950
49.5300	13073.2225
49.5400	13412.4650
49.5500	13368.8075
49.5600	13609.4575
49.5700	12993.7950
49.5800	12950.4150
49.5900	13699.2650
49.6000	13413.9875
49.6100	13147.0550
49.6200	13592.4850
49.6300	13209.6500
49.6400	13142.8700
49.6500	13778.9825
49.6600	13197.1425
49.6700	13412.7425
49.6800	13352.9275
49.6900	13406.7925
49.7000	13533.0750
49.7100	13767.3625
49.7200	13270.5625
49.7300	13929.8500
49.7400	14653.7425
49.7500	13877.7000
49.7600	13790.8025
49.7700	13916.6675
49.7800	13908.3600
49.7900	13767.5850
49.8000	13777.8575
49.8100	13685.1475
49.8200	13701.3325
49.8300	13458.4425
49.8400	13898.2175
49.8500	13878.1875
49.8600	14058.6650
49.8700	13625.4250
49.8800	13805.9700
49.8900	14169.0700
49.9000	13319.7850
49.9100	13679.9125
49.9200	13650.6575
49.9300	14253.7750
49.9400	13696.6425
49.9500	13643.3425
49.9600	13839.1350
49.9700	13959.8850
49.9800	14137.7200
49.9900	13902.4400
50.0000	13941.9175
50.0100	13779.3175
50.0200	13687.2325
50.0300	13421.4425
50.0400	13219.5600
50.0500	13917.1400
50.0600	13247.6675
50.0700	13222.3900
50.0800	13703.2750
50.0900	14093.8125
50.1000	13622.7200
50.1100	13747.7450
50.1200	13682.8325
50.1300	13315.1850
50.1400	13292.1675
50.1500	13464.3275
50.1600	13108.7975
50.1700	14405.0450
50.1800	14499.4900
50.1900	14084.6900
50.2000	13346.2075
50.2100	12897.3400
50.2200	13236.8300
50.2300	13728.9875
50.2400	14400.6850
50.2500	14394.2250
50.2600	13869.3675
50.2700	13917.2575
50.2800	13518.0425
50.2900	13171.7700
50.3000	13696.0725
50.3100	13612.3425
50.3200	13922.4675
50.3300	14067.9450
50.3400	14101.2700
50.3500	14129.5575
50.3600	14026.4650
50.3700	13877.2500
50.3800	14547.0925
50.3900	13600.0000
50.4000	13641.6900
50.4100	14726.0325
50.4200	14055.4075
50.4300	13323.5650
50.4400	13974.8450
50.4500	14216.2150
50.4600	14645.4250
50.4700	14037.4800
50.4800	13677.6925
50.4900	13523.3750
50.5000	13701.1525
50.5100	13268.6700
50.5200	13811.7700
50.5300	13692.0075
50.5400	14445.7275
50.5500	14319.8425
50.5600	14412.4725
50.5700	14265.1600
50.5800	13700.5150
50.5900	13720.2325
50.6000	13840.3950
50.6100	14068.1650
50.6200	14115.1825
50.6300	14065.6875
50.6400	14026.5500
50.6500	13800.0000
50.6600	13805.6975
50.6700	14010.3350
50.6800	14371.7800
50.6900	14541.7200
50.7000	14259.5550
50.7100	14570.7425
50.7200	13503.7550
50.7300	13036.8550
50.7400	13180.6000
50.7500	13697.4175
50.7600	13598.7225
50.7700	13571.4575
50.7800	14386.6925
50.7900	13865.8450
50.8000	13820.3400
50.8100	13304.4125
50.8200	13503.1500
50.8300	14308.0550
50.8400	13950.7725
50.8500	13981.0425
50.8600	13885.9725
50.8700	14004.0925
50.8800	14182.9650
50.8900	14149.6400
50.9000	13389.0525
50.9100	13649.6475
50.9200	13645.8525
50.9300	14232.3050
50.9400	14186.7150
50.9500	14344.0000
50.9600	14047.7000
50.9700	13937.5400
50.9800	14157.3325
50.9900	14521.7150
51.0000	13915.7400
51.0100	13868.1875
51.0200	13947.9025
51.0300	13825.9625
51.0400	13420.7275
51.0500	13658.2700
51.0600	14126.3225
51.0700	13720.2500
51.0800	13939.2925
51.0900	14296.8075
51.1000	14104.9650
51.1100	14414.8700
51.1200	14296.7275
51.1300	14070.7350
51.1400	13243.9925
51.1500	13972.1300
51.1600	14349.7675
51.1700	14326.0375
51.1800	13803.7950
51.1900	14075.9025
51.2000	13520.3000
51.2100	13798.1175
51.2200	13653.4725
51.2300	13931.5375
51.2400	13780.8000
51.2500	13570.4700
51.2600	13900.7425
51.2700	13969.3775
51.2800	14218.4275
51.2900	14378.0225
51.3000	13861.6675
51.3100	13368.2850
51.3200	13542.1375
51.3300	14466.2100
51.3400	14411.7875
51.3500	13865.3775
51.3600	13716.6675
51.3700	13722.0200
51.3800	14382.5575
51.3900	14283.8325
51.4000	14347.3650
51.4100	13976.8850
51.4200	13053.9775
51.4300	13652.8575
51.4400	14100.0000
51.4500	14099.1300
51.4600	13950.2750
51.4700	13999.7375
51.4800	13953.1400
51.4900	14581.6175
51.5000	14214.0975
51.5100	13632.3700
51.5200	13401.3475
51.5300	13750.5950
51.5400	13917.2700
51.5500	14101.1575
51.5600	14482.1000
51.5700	14032.8000
51.5800	13815.6825
51.5900	13367.4325
51.6000	13766.8575
51.6100	13883.5150
51.6200	14016.8650
51.6300	14199.9725
51.6400	14166.6125
51.6500	14066.6800
51.6600	14116.6650
51.6700	14466.5675
51.6800	14350.0650
51.6900	13850.4150
51.7000	13916.5925
51.7100	13866.7350
51.7200	13833.3875
51.7300	13766.7950
51.7400	13799.9275
51.7500	13800.0000
51.7600	14381.7350
51.7700	14333.4850
51.7800	14050.9300
51.7900	14000.1775
51.8000	14464.8800
51.8100	14566.2575
51.8200	13969.2875
51.8300	13800.7725
51.8400	14463.3925
51.8500	14400.3450
51.8600	14101.6350
51.8700	13619.4325
51.8800	13782.3350
51.8900	13452.0875
51.9000	13450.0000
51.9100	14244.5625
51.9200	14696.8200
51.9300	14187.1225
51.9400	14100.6325
51.9500	14000.7875
51.9600	14628.1800
51.9700	14236.6950
51.9800	14233.3325
51.9900	14827.9700
52.0000	13925.1075
52.0100	13834.1225
52.0200	14080.8975
52.0300	14017.3350
52.0400	14297.0900
52.0500	14481.4000
52.0600	14697.6600
52.0700	14535.1775
52.0800	13857.7450
52.0900	14426.5675
52.1000	13889.8600
52.1100	14097.3725
52.1200	14478.5825
52.1300	14203.5875
52.1400	13772.2675
52.1500	13816.0075
52.1600	13718.0125
52.1700	13815.2950
52.1800	13915.2700
52.1900	14442.4050
52.2000	14236.4750
52.2100	14381.1175
52.2200	14153.5050
52.2300	13690.4675
52.2400	13601.2950
52.2500	13944.4650
52.2600	14359.9700
52.2700	14120.7500
52.2800	14149.4475
52.2900	14215.5425
52.3000	14118.3775
52.3100	13739.9950
52.3200	14257.2600
52.3300	13890.1950
52.3400	13801.5125
52.3500	14225.3525
52.3600	14380.5325
52.3700	13418.6200
52.3800	13628.8550
52.3900	13666.0175
52.4000	13356.2425
52.4100	13693.0100
52.4200	14042.9200
52.4300	13952.0475
52.4400	13623.5800
52.4500	13975.6325
52.4600	14260.6425
52.4700	13826.3475
52.4800	14305.7800
52.4900	14006.9750
52.5000	13592.6200
52.5100	13534.4600
52.5200	14363.9550
52.5300	14529.8750
52.5400	14403.1075
52.5500	14155.8900
52.5600	13954.7650
52.5700	13868.6725
52.5800	13980.4950
52.5900	14340.9850
52.6000	13959.9350
52.6100	14404.9575
52.6200	14091.7825
52.6300	14261.9725
52.6400	14510.2025
52.6500	14386.8150
52.6600	13588.1925
52.6700	14053.3600
52.6800	14358.6075
52.6900	14382.8825
52.7000	14626.4900
52.7100	14163.3500
52.7200	13890.7650
52.7300	13786.1450
52.7400	13912.8825
52.7500	14629.0075
52.7600	14633.8150
52.7700	13921.3600
52.7800	13624.9900
52.7900	13988.6425
52.8000	14113.1800
52.8100	13987.3500
52.8200	14451.9825
52.8300	13804.2625
52.8400	13896.3975
52.8500	13900.0000
52.8600	14142.1550
52.8700	14198.4200
52.8800	14119.3225
52.8900	13648.8575
52.9000	13923.6225
52.9100	13965.5800
52.9200	14047.2625
52.9300	13824.3925
52.9400	13365.5675
52.9500	14010.3700
52.9600	14001.1275
52.9700	14016.0975
52.9800	14016.6675
52.9900	14129.2975
53.0000	14406.7950
53.0100	14609.6500
53.0200	14134.3300
53.0300	14229.1825
53.0400	14715.4250
53.0500	14669.0700
53.0600	13927.8375
53.0700	14028.4600
53.0800	13888.8525
53.0900	13867.2850
53.1000	13995.0275
53.1100	13695.2175
53.1200	14276.7075
53.1300	14797.0250
53.1400	14544.1725
53.1500	13972.4600
53.1600	13982.0425
53.1700	13951.3000
53.1800	13885.9475
53.1900	14299.5625
53.2000	14284.6575
53.2100	14443.3400
53.2200	14210.0500
53.2300	13896.1375
53.2400	14043.2200
53.2500	14577.4950
53.2600	14456.1750
53.2700	14114.4900
53.2800	14100.0000
53.2900	14163.8750
53.3000	14837.1825
53.3100	15058.1950
53.3200	14492.2250
53.3300	14323.0925
53.3400	14619.6925
53.3500	14314.4375
53.3600	14284.0600
53.3700	14426.7650
53.3800	14258.0725
53.3900	14170.3550
53.4000	14150.7425
53.4100	13863.4225
53.4200	13786.3325
53.4300	13719.6800
53.4400	13716.6675
53.4500	14464.2075
53.4600	14229.6800
53.4700	14312.0500
53.4800	14491.4925
53.4900	14706.5625
53.5000	14621.3550
53.5100	14632.5475
53.5200	14252.2700
53.5300	14074.5950
53.5400	13860.3600
53.5500	13612.0125
53.5600	14123.4450
53.5700	14038.9925
53.5800	14017.4800
53.5900	14159.3200
53.6000	14578.6725
53.6100	13934.6150
53.6200	14042.5475
53.6300	14825.9025
53.6400	14185.9400
53.6500	13928.4225
53.6600	14454.6525
53.6700	13771.4675
53.6800	13685.8875
53.6900	13667.5225
53.7000	13887.9750
53.7100	14089.6450
53.7200	14068.4000
53.7300	14303.6075
53.7400	13969.2375
53.7500	13728.9625
53.7600	13985.0050
53.7700	13337.2100
53.7800	13789.0850
53.7900	14005.9425
53.8000	14284.7450
53.8100	14126.5800
53.8200	14290.0450
53.8300	14504.8500
53.8400	14107.0625
53.8500	14744.8400
53.8600	14547.1375
53.8700	13966.6000
53.8800	14374.0175
53.8900	14604.5550
53.9000	14585.2050
53.9100	14080.0575
53.9200	14474.5375
53.9300	14169.8825
53.9400	14731.4925
53.9500	14185.3125
53.9600	14165.7075
53.9700	14417.9425
53.9800	14401.9325
53.9900	14148.8450
54.0000	14337.3475
54.0100	14397.0700
54.0200	14541.1725
54.0300	14706.8225
54.0400	14559.8825
54.0500	14581.3500
54.0600	14457.9650
54.0700	14105.3200
54.0800	14083.3325
54.0900	14114.6525
54.1000	14194.9475
54.1100	13886.9525
54.1200	14210.9350
54.1300	13732.6975
54.1400	14497.7000
54.1500	13893.2250
54.1600	14272.1125
54.1700	14253.1100
54.1800	13765.5825
54.1900	13780.2025
54.2000	13845.8100
54.2100	14021.7675
54.2200	13908.4400
54.2300	14586.7500
54.2400	14149.6000
54.2500	13711.0500
54.2600	14369.5975
54.2700	14245.1400
54.2800	14186.5650
54.2900	13622.2400
54.3000	14393.6125
54.3100	14122.8500
54.3200	13959.8250
54.3300	13841.0000
54.3400	14456.0400
54.3500	14188.7200
54.3600	14353.3925
54.3700	14366.6675
54.3800	14335.5600
54.3900	14442.1800
54.4000	14076.8975
54.4100	14205.4225
54.4200	13936.9700
54.4300	14305.0425
54.4400	14364.3950
54.4500	14195.8600
54.4600	13733.1300
54.4700	14010.4125
54.4800	14902.2875
54.4900	14811.5325
54.5000	14319.1950
54.5100	13352.9575
54.5200	13825.9275
54.5300	14595.1225
54.5400	14154.1450
54.5500	13466.0050
54.5600	13757.4100
54.5700	14449.1800
54.5800	14298.7450
54.5900	14391.6775
54.6000	14121.4650
54.6100	14285.6475
54.6200	14578.4050
54.6300	14368.0475
54.6400	13777.9825
54.6500	13949.7225
54.6600	14368.4400
54.6700	14400.0000
54.6800	14168.3125
54.6900	14134.5575
54.7000	14472.9850
54.7100	14746.9625
54.7200	14257.4200
54.7300	14478.9450
54.7400	14731.3700
54.7500	14611.2100
54.7600	14322.4825
54.7700	14346.2425
54.7800	14134.2500
54.7900	13993.4100
54.8000	14044.9475
54.8100	14958.6100
54.8200	14294.2925
54.8300	14079.4025
54.8400	14282.1225
54.8500	14392.3175
54.8600	13938.5175
54.8700	13730.8275
54.8800	13916.5525
54.8900	14302.2700
54.9000	14855.8775
54.9100	14531.2275
54.9200	14453.9150
54.9300	14787.8875
54.9400	14248.5275
54.9500	14184.6475
54.9600	14029.8500
54.9700	13924.5975
54.9800	14070.0800
54.9900	14359.4175
55.0000	13662.6100
55.0100	13906.6225
55.0200	14193.9050
55.0300	14048.1000
55.0400	13512.4250
55.0500	14125.3175
55.0600	14642.7550
55.0700	14668.0225
55.0800	15309.5700
55.0900	14953.4625
55.1000	13753.8325
55.1100	13802.9700
55.1200	13908.4275
55.1300	13519.1200
55.1400	13896.0800
55.1500	13933.3325
55.1600	14300.0575
55.1700	14745.8075
55.1800	14325.1300
55.1900	14023.7425
55.2000	13862.6000
55.2100	14185.7925
55.2200	14262.4475
55.2300	13992.0475
55.2400	13554.8275
55.2500	13516.6675
55.2600	14004.5575
55.2700	14110.9725
55.2800	14101.4275
55.2900	14160.9475
55.3000	14151.4325
55.3100	14302.3000
55.3200	13936.0000
55.3300	13869.5525
55.3400	14277.6075
55.3500	14575.3500
55.3600	14021.8925
55.3700	14103.5575
55.3800	14192.7000
55.3900	13774.3025
55.4000	14432.5425
55.4100	14287.2425
55.4200	14555.3450
55.4300	14477.0000
55.4400	14481.8525
55.4500	14544.0675
55.4600	14079.4050
55.4700	14018.1550
55.4800	13880.1025
55.4900	14109.3975
55.5000	13875.4875
55.5100	13925.8200
55.5200	14251.7125
55.5300	14025.6525
55.5400	13969.6900
55.5500	14072.7250
55.5600	14401.4400
55.5700	14933.1075
55.5800	14998.4750
55.5900	14046.2950
55.6000	13980.2700
55.6100	14346.4950
55.6200	14156.4050
55.6300	13573.6975
55.6400	14348.3800
55.6500	14312.3825
55.6600	14239.5375
55.6700	14142.6600
55.6800	14375.0800
55.6900	14415.1050
55.7000	13842.7600
55.7100	13828.6325
55.7200	13939.0075
55.7300	14085.8400
55.7400	14265.9900
55.7500	14720.8525
55.7600	14374.4900
55.7700	14363.4950
55.7800	14140.5075
55.7900	14463.3725
55.8000	13927.3025
55.8100	14062.5500
55.8200	14520.2100
55.8300	14205.1900
55.8400	13729.9725
55.8500	13683.3325
55.8600	13924.1675
55.8700	14130.5875
55.8800	14541.1900
55.8900	14132.0525
55.9000	14429.2425
55.9100	14947.8325
55.9200	14654.2350
55.9300	14270.9725
55.9400	13662.3075
55.9500	13765.2625
55.9600	14504.3325
55.9700	14673.4400
55.9800	14127.7950
55.9900	14126.7125
56.0000	13833.1650
56.0100	14355.1950
56.0200	14521.6825
56.0300	14593.3300
56.0400	14734.9650
56.0500	14315.2050
56.0600	14236.6875
56.0700	14113.4400
56.0800	13695.4400
56.0900	14219.2625
56.1000	14208.4450
56.1100	13690.8700
56.1200	13663.2750
56.1300	13966.0325
56.1400	13880.2775
56.1500	14150.9475
56.1600	14078.6200
56.1700	14335.8775
56.1800	14247.0425
56.1900	14053.9325
56.2000	13719.4475
56.2100	14176.4825
56.2200	14845.9100
56.2300	14349.0275
56.2400	14477.4875
56.2500	14111.7725
56.2600	13797.9475
56.2700	13736.8150
56.2800	14240.7075
56.2900	14255.2400
56.3000	14891.4200
56.3100	14698.2200
56.3200	14204.4325
56.3300	13762.3975
56.3400	13999.8575
56.3500	14271.7625
56.3600	14314.9000
56.3700	14152.8125
56.3800	14505.6525
56.3900	14594.6700
56.4000	13825.8850
56.4100	14507.2950
56.4200	14555.3575
56.4300	14371.4650
56.4400	14602.8750
56.4500	14321.0200
56.4600	14387.4175
56.4700	14637.8575
56.4800	14488.3100
56.4900	13872.2600
56.5000	13755.4275
56.5100	13913.3975
56.5200	14185.8075
56.5300	14246.3625
56.5400	14294.5375
56.5500	14656.2200
56.5600	14507.0850
56.5700	14394.3125
56.5800	14843.1800
56.5900	14366.0900
56.6000	14374.1400
56.6100	15035.6350
56.6200	14968.4450
56.6300	14520.2425
56.6400	14392.5850
56.6500	13983.3725
56.6600	14496.1325
56.6700	14181.6700
56.6800	14636.6925
56.6900	14122.7300
56.7000	14242.3850
56.7100	14488.6075
56.7200	14087.6650
56.7300	14447.4600
56.7400	14544.3625
56.7500	14756.9825
56.7600	14487.7000
56.7700	14050.9725
56.7800	13748.8100
56.7900	13628.0275
56.8000	14237.0150
56.8100	14523.4100
56.8200	14609.0575
56.8300	15531.8875
56.8400	14646.4050
56.8500	14088.7450
56.8600	14195.6175
56.8700	14703.4250
56.8800	14973.1300
56.8900	14557.6625
56.9000	14721.1250
56.9100	15074.2550
56.9200	14792.4725
56.9300	14145.9375
56.9400	14140.3200
56.9500	14312.0025
56.9600	13876.8650
56.9700	14228.8825
56.9800	14298.0525
56.9900	13976.2400
57.0000	13948.0475
57.0100	14214.7925
57.0200	14617.7000
57.0300	14475.5000
57.0400	14155.9525
57.0500	14513.5550
57.0600	14081.6725
57.0700	14119.5250
57.0800	14221.4800
57.0900	14321.4650
57.1000	14876.7025
57.1100	14671.0250
57.1200	13928.6875
57.1300	14523.1675
57.1400	14440.5725
57.1500	14108.5575
57.1600	13919.9750
57.1700	13841.3350
57.1800	13965.3050
57.1900	14555.1050
57.2000	15190.3375
57.2100	14621.8350
57.2200	14401.4600
57.2300	14676.3300
57.2400	14907.0775
57.2500	14127.8950
57.2600	13489.5700
57.2700	14309.6375
57.2800	14228.4275
57.2900	13760.9975
57.3000	13656.1075
57.3100	14044.9550
57.3200	14085.3750
57.3300	14156.4450
57.3400	13684.2125
57.3500	14274.4350
57.3600	14118.2225
57.3700	14273.2850
57.3800	14855.1400
57.3900	14860.3025
57.4000	14703.9650
57.4100	14975.3500
57.4200	14520.3275
57.4300	14172.6850
57.4400	14337.6325
57.4500	14235.3550
57.4600	14099.9675
57.4700	14929.2475
57.4800	14962.5075
57.4900	14468.8800
57.5000	14239.6550
57.5100	14041.7775
57.5200	13900.0950
57.5300	14874.0050
57.5400	14259.2325
57.5500	13858.7325
57.5600	13583.6950
57.5700	13928.5100
57.5800	14070.6650
57.5900	13937.8050
57.6000	14076.7175
57.6100	14085.4525
57.6200	14068.7875
57.6300	13935.7875
57.6400	14425.5500
57.6500	14369.1675
57.6600	14451.7400
57.6700	14728.2350
57.6800	14301.7375
57.6900	14131.6475
57.7000	13855.2400
57.7100	13802.1450
57.7200	14729.1850
57.7300	14460.2225
57.7400	14806.3725
57.7500	15011.7725
57.7600	14453.0100
57.7700	14091.0625
57.7800	14238.5375
57.7900	13976.6625
57.8000	14223.2850
57.8100	14513.0825
57.8200	14303.6275
57.8300	14281.1575
57.8400	14297.8200
57.8500	14328.9700
57.8600	14941.5800
57.8700	14743.7425
57.8800	14902.6775
57.8900	14759.6425
57.9000	15037.2400
57.9100	15271.4325
57.9200	14157.1375
57.9300	14460.6475
57.9400	14692.4100
57.9500	14586.5375
57.9600	14393.1900
57.9700	14424.4825
57.9800	13681.8700
57.9900	13451.0775
58.0000	14357.8850
58.0100	14716.6525
58.0200	14432.2975
58.0300	13979.0575
58.0400	13959.9750
58.0500	14370.8000
58.0600	14635.3650
58.0700	14334.8150
58.0800	14254.4825
58.0900	14206.7300
58.1000	14531.6750
58.1100	13876.8450
58.1200	14011.7325
58.1300	13977.9350
58.1400	14139.5925
58.1500	14526.8675
58.1600	14396.0625
58.1700	14582.7125
58.1800	14501.4625
58.1900	14468.9350
58.2000	14524.2475
58.2100	14375.0100
58.2200	14450.7325
58.2300	14768.8150
58.2400	14759.1250
58.2500	14563.0225
58.2600	14562.0950
58.2700	14882.9825
58.2800	14775.2025
58.2900	13916.3675
58.3000	14042.0025
58.3100	15045.9900
58.3200	14654.1100
58.3300	14121.4125
58.3400	14136.1625
58.3500	14422.8025
58.3600	14466.6675
58.3700	14394.9000
58.3800	14225.4750
58.3900	15017.8450
58.4000	14662.2450
58.4100	14454.2450
58.4200	14605.4225
58.4300	14131.4925
58.4400	14222.0300
58.4500	14450.6675
58.4600	14311.3625
58.4700	14627.2175
58.4800	14769.2900
58.4900	14453.8900
58.5000	14027.6500
58.5100	14210.0850
58.5200	14221.3675
58.5300	14331.1775
58.5400	14378.6225
58.5500	14183.0075
58.5600	14479.0500
58.5700	14032.6925
58.5800	14321.8425
58.5900	14111.6500
58.6000	14767.2075
58.6100	14454.5025
58.6200	14354.7500
58.6300	14007.0525
58.6400	14235.7425
58.6500	14669.0200
58.6600	14590.5100
58.6700	14466.7075
58.6800	13907.4575
58.6900	14130.7175
58.7000	14226.1500
58.7100	14461.6550
58.7200	14599.8750
58.7300	14288.5625
58.7400	14646.9600
58.7500	14745.1875
58.7600	14151.1575
58.7700	14335.1150
58.7800	15110.2550
58.7900	15048.0700
58.8000	14631.9550
58.8100	14723.3750
58.8200	14678.7800
58.8300	15136.6350
58.8400	15259.3850
58.8500	14882.2775
58.8600	14332.7000
58.8700	14463.4800
58.8800	14357.7050
58.8900	14603.6500
58.9000	14521.9775
58.9100	14087.5500
58.9200	14030.8875
58.9300	14289.2525
58.9400	14589.2100
58.9500	14434.3525
58.9600	14144.2100
58.9700	14213.6650
58.9800	14474.8325
58.9900	14687.1100
59.0000	14106.0150
59.0100	13645.0300
59.0200	14435.1225
59.0300	14682.6925
59.0400	14983.8350
59.0500	14948.1975
59.0600	14408.4100
59.0700	14387.5900
59.0800	14087.9875
59.0900	14487.0950
59.1000	14637.5550
59.1100	14295.6150
59.1200	14474.2750
59.1300	14488.3250
59.1400	14568.3450
59.1500	14654.1650
59.1600	14383.3925
59.1700	14276.6875
59.1800	14054.2800
59.1900	14115.7650
59.2000	14444.7325
59.2100	13905.6100
59.2200	13870.7500
59.2300	13812.5950
59.2400	14054.6150
59.2500	14128.2850
59.2600	13921.2250
59.2700	14759.9075
59.2800	15185.2500
59.2900	14597.3175
59.3000	14553.9900
59.3100	14623.1825
59.3200	14816.9825
59.3300	15160.7375
59.3400	14990.7125
59.3500	14300.4850
59.3600	13886.8650
59.3700	13734.5250
59.3800	14394.0900
59.3900	15137.5375
59.4000	15405.1925
59.4100	14530.5400
59.4200	14761.5750
59.4300	14537.2000
59.4400	14483.3325
59.4500	14638.4000
59.4600	14384.7725
59.4700	13938.7450
59.4800	14021.6600
59.4900	14388.1100
59.5000	14464.0850
59.5100	14156.8325
59.5200	14395.7025
59.5300	14675.2625
59.5400	14871.5100
59.5500	14379.2500
59.5600	14522.5575
59.5700	14383.7600
59.5800	14167.1225
59.5900	14386.5075
59.6000	14813.0350
59.6100	14545.8750
59.6200	14075.6375
59.6300	14196.7875
59.6400	13994.4150
59.6500	14104.5700
59.6600	14526.7200
59.6700	14670.2375
59.6800	14879.9625
59.6900	15057.0950
59.7000	14732.3200
59.7100	14694.7425
59.7200	14685.9650
59.7300	14528.9600
59.7400	14906.9150
59.7500	14660.6575
59.7600	14642.0825
59.7700	14621.9500
59.7800	14798.9625
59.7900	14735.1900
59.8000	14997.0300
59.8100	14699.6000
59.8200	14577.2775
59.8300	14216.3775
59.8400	14738.3900
59.8500	14695.9225
59.8600	14330.5500
59.8700	14364.6850
59.8800	13683.3125
59.8900	14361.8975
59.9000	14530.6625
59.9100	14519.3400
59.9200	14474.6925
59.9300	14634.5400
59.9400	14177.1150
59.9500	14251.1525
59.9600	14059.6100
59.9700	14226.3750
59.9800	14378.4925
59.9900	14358.0725
60.0000	14517.6875
60.0100	14591.9150
60.0200	14669.8475
60.0300	14124.6400
60.0400	14072.5275
60.0500	14655.8150
60.0600	14850.4325
60.0700	14657.2875
60.0800	14812.0550
60.0900	15143.0375
60.1000	15144.1925
60.1100	14519.5425
60.1200	14553.4250
60.1300	14973.8050
60.1400	14701.4175
60.1500	14661.2150
60.1600	15043.0175
60.1700	14642.8175
60.1800	14633.6075
60.1900	14594.2700
60.2000	14360.4500
60.2100	13940.6100
60.2200	14521.1825
60.2300	15220.8700
60.2400	15375.0975
60.2500	14923.9950
60.2600	15417.8550
60.2700	14893.2425
60.2800	14335.3700
60.2900	14542.1250
60.3000	14725.1775
60.3100	14527.4975
60.3200	14538.9500
60.3300	14786.3350
60.3400	14527.5375
60.3500	14272.1000
60.3600	14413.9750
60.3700	14436.1075
60.3800	14530.5725
60.3900	14508.3325
60.4000	14375.0175
60.4100	15016.4700
60.4200	15302.7100
60.4300	14680.9525
60.4400	14619.3925
60.4500	14577.8275
60.4600	14275.3125
60.4700	14369.2575
60.4800	14386.1300
60.4900	14341.7300
60.5000	14069.8900
60.5100	14169.1625
60.5200	14754.4475
60.5300	14741.9350
60.5400	14661.2400
60.5500	14705.4200
60.5600	14979.8675
60.5700	14908.6800
60.5800	14675.6075
60.5900	14896.4125
60.6000	15116.1300
60.6100	14900.8450
60.6200	14711.6025
60.6300	14627.9825
60.6400	13772.6975
60.6500	13793.6675
60.6600	13847.1650
60.6700	13393.6375
60.6800	13770.1200
60.6900	14544.0875
60.7000	14780.0925
60.7100	14772.3575
60.7200	14435.0200
60.7300	14297.5850
60.7400	14352.4050
60.7500	14919.1550
60.7600	15309.5350
60.7700	15352.8575
60.7800	15046.2700
60.7900	14555.4175
60.8000	14452.8650
60.8100	14381.0025
60.8200	14532.2350
60.8300	14401.1225
60.8400	14642.5300
60.8500	14782.7475
60.8600	14634.5325
60.8700	15316.9175
60.8800	14777.4275
60.8900	14591.9850
60.9000	14721.1400
60.9100	15094.4625
60.9200	14588.0600
60.9300	14631.9575
60.9400	14790.6150
60.9500	14527.4950
60.9600	14081.1650
60.9700	14743.3550
60.9800	14803.6525
60.9900	14618.1925
61.0000	14445.7375
61.0100	14210.3050
61.0200	14524.3075
61.0300	15053.8575
61.0400	14338.6800
61.0500	14647.8850
61.0600	14914.9650
61.0700	14468.9275
61.0800	14531.5800
61.0900	14676.5925
61.1000	14631.3075
61.1100	14767.7700
61.1200	14827.4700
61.1300	14833.3325
61.1400	14723.4900
61.1500	14947.1075
61.1600	14931.3700
61.1700	14697.0825
61.1800	14855.8300
61.1900	14817.6800
61.2000	14443.3375
61.2100	14311.8050
61.2200	14656.5550
61.2300	14321.9875
61.2400	14630.9075
61.2500	14620.7150
61.2600	14394.4200
61.2700	14843.3175
61.2800	14936.3000
61.2900	14659.3500
61.3000	14504.1200
61.3100	14318.9950
61.3200	14310.7200
61.3300	14330.3575
61.3400	14716.6175
61.3500	14772.6275
61.3600	14944.5675
61.3700	14654.9525
61.3800	14706.4575
61.3900	14322.9825
61.4000	14753.0325
61.4100	14675.2275
61.4200	14236.8400
61.4300	14122.6600
61.4400	14362.6925
61.4500	14812.9800
61.4600	15050.3025
61.4700	15042.3475
61.4800	15046.9925
61.4900	14653.9250
61.5000	14348.1750
61.5100	14327.3075
61.5200	14346.9850
61.5300	13981.4625
61.5400	14459.5450
61.5500	14938.1125
61.5600	15439.6100
61.5700	15355.9975
61.5800	14675.6250
61.5900	14683.3425
61.6000	14866.6525
61.6100	14341.0450
61.6200	14107.6200
61.6300	14737.5225
61.6400	15292.1400
61.6500	15001.8375
61.6600	14807.6850
61.6700	14865.0575
61.6800	14324.9675
61.6900	14472.3325
61.7000	14587.7925
61.7100	15362.3000
61.7200	15111.4100
61.7300	14771.7150
61.7400	14376.5075
61.7500	14272.7925
61.7600	14497.9050
61.7700	14740.4025
61.7800	15300.0625
61.7900	15049.5725
61.8000	14422.9050
61.8100	14272.8150
61.8200	14796.6750
61.8300	14590.5575
61.8400	14584.5950
61.8500	14871.6775
61.8600	14879.0050
61.8700	15029.6225
61.8800	14985.2000
61.8900	15143.1500
61.9000	15278.3475
61.9100	14689.2800
61.9200	14902.8075
61.9300	14956.1975
61.9400	15072.0900
61.9500	15032.1825
61.9600	14799.6850
61.9700	15183.8975
61.9800	15147.7600
61.9900	14750.6750
62.0000	14924.1775
62.0100	15078.1925
62.0200	15438.7275
62.0300	14934.1425
62.0400	14881.2700
62.0500	15252.1175
62.0600	15076.0550
62.0700	14556.3425
62.0800	14788.4225
62.0900	15299.7825
62.1000	14966.9500
62.1100	14636.6425
62.1200	14515.6900
62.1300	14270.0450
62.1400	14365.4375
62.1500	14589.3175
62.1600	14700.9375
62.1700	14595.0000
62.1800	14931.6125
62.1900	14800.4350
62.2000	14601.3625
62.2100	14661.2400
62.2200	14791.4000
62.2300	15208.3525
62.2400	15327.0075
62.2500	14887.7575
62.2600	14621.3300
62.2700	14205.3825
62.2800	14116.6675
62.2900	14534.9850
62.3000	15065.0825
62.3100	14586.5925
62.3200	14355.5825
62.3300	15075.0650
62.3400	14858.9625
62.3500	14699.2575
62.3600	14912.4925
62.3700	14993.6225
62.3800	14501.3925
62.3900	14073.4350
62.4000	13703.6200
62.4100	14428.0500
62.4200	15007.2325
62.4300	14736.4250
62.4400	14703.8550
62.4500	14595.5125
62.4600	14310.9325
62.4700	14626.8125
62.4800	15133.7900
62.4900	15112.2525
62.5000	15150.5900
62.5100	15233.9150
62.5200	15236.5525
62.5300	14547.6175
62.5400	14504.3250
62.5500	14909.6925
62.5600	15000.0000
62.5700	15000.0000
62.5800	15053.7400
62.5900	15120.4000
62.6000	14502.0650
62.6100	15155.7525
62.6200	15000.8925
62.6300	14728.7150
62.6400	15179.9875
62.6500	15420.7900
62.6600	15288.9725
62.6700	15115.8300
62.6800	14801.6175
62.6900	14679.6825
62.7000	14975.1175
62.7100	14701.3675
62.7200	14241.2750
62.7300	14847.0525
62.7400	15499.1675
62.7500	15308.4475
62.7600	14925.1625
62.7700	14836.6025
62.7800	14739.5700
62.7900	15078.2700
62.8000	14497.1350
62.8100	14654.6600
62.8200	14719.9475
62.8300	14930.8200
62.8400	14903.0375
62.8500	14910.0950
62.8600	15425.0475
62.8700	15335.9775
62.8800	14694.8600
62.8900	14830.8200
62.9000	15087.1850
62.9100	15053.1225
62.9200	14806.1075
62.9300	15191.0200
62.9400	15487.0700
62.9500	15185.9675
62.9600	15019.8500
62.9700	14398.9750
62.9800	13982.9175
62.9900	14664.3825
63.0000	15050.2500
63.0100	15286.8725
63.0200	15360.0250
63.0300	14525.9975
63.0400	15050.4725
63.0500	15420.0925
63.0600	14946.4900
63.0700	14976.6975
63.0800	15363.3450
63.0900	15543.3225
63.1000	15033.4775
63.1100	14700.0850
63.1200	14503.4175
63.1300	14693.1675
63.1400	14736.6775
63.1500	14759.9725
63.1600	14779.9850
63.1700	14676.8100
63.1800	14836.3875
63.1900	14816.7775
63.2000	14493.8850
63.2100	14696.1200
63.2200	15139.2150
63.2300	15060.3900
63.2400	15016.6675
63.2500	15056.5650
63.2600	14734.2375
63.2700	14676.5900
63.2800	14909.3150
63.2900	14860.3375
63.3000	14886.4900
63.3100	14846.8525
63.3200	14660.6300
63.3300	14749.4950
63.3400	14663.8050
63.3500	14487.2675
63.3600	14489.8300
63.3700	14699.1200
63.3800	14643.8175
63.3900	14842.2675
63.4000	15099.0275
63.4100	15057.1350
63.4200	15219.0350
63.4300	15094.2550
63.4400	14638.9275
63.4500	15037.1500
63.4600	15259.4600
63.4700	15190.5525
63.4800	14928.1275
63.4900	14813.6650
63.5000	14574.7825
63.5100	15152.4800
63.5200	14813.3925
63.5300	14444.9775
63.5400	14105.2950
63.5500	14403.9950
63.5600	14883.8400
63.5700	14546.6175
63.5800	14856.7500
63.5900	15138.6525
63.6000	15461.1150
63.6100	15387.8525
63.6200	15482.2350
63.6300	15966.1975
63.6400	15528.1175
63.6500	15000.0300
63.6600	14952.8625
63.6700	15125.2250
63.6800	15140.2450
63.6900	15569.2350
63.7000	15089.0125
63.7100	14986.1525
63.7200	15303.6700
63.7300	14828.8925
63.7400	14419.3550
63.7500	14877.8725
63.7600	15254.1725
63.7700	15409.0150
63.7800	15090.3750
63.7900	14947.2450
63.8000	14946.5200
63.8100	14514.9125
63.8200	14742.7425
63.8300	15334.1875
63.8400	14913.1775
63.8500	15188.3050
63.8600	15128.7350
63.8700	14977.9575
63.8800	14857.8100
63.8900	15057.1900
63.9000	15643.3025
63.9100	15138.3050
63.9200	15124.6075
63.9300	14863.9925
63.9400	14388.6050
63.9500	14559.6000
63.9600	15106.8600
63.9700	15338.5450
63.9800	14617.1525
63.9900	14350.9300
64.0000	14451.6400
64.0100	15140.4900
64.0200	14869.8700
64.0300	14750.0000
64.0400	15104.6975
64.0500	15344.4825
64.0600	14542.8350
64.0700	14763.1100
64.0800	15237.8050
64.0900	14900.1575
64.1000	15373.9350
64.1100	15375.8650
64.1200	15254.6125
64.1300	15193.9775
64.1400	15157.1000
64.1500	14940.1750
64.1600	14843.9975
64.1700	14794.0025
64.1800	15228.9975
64.1900	14930.6175
64.2000	14973.9100
64.2100	14820.1425
64.2200	14583.2750
64.2300	15070.3250
64.2400	14980.9525
64.2500	14720.2700
64.2600	14352.4800
64.2700	15012.7400
64.2800	15321.3625
64.2900	15821.0525
64.3000	15465.9400
64.3100	15464.1400
64.3200	15081.4875
64.3300	15032.0500
64.3400	15154.5950
64.3500	15418.6350
64.3600	14960.5275
64.3700	15078.0275
64.3800	15489.7150
64.3900	15439.6300
64.4000	15047.3325
64.4100	14989.1800
64.4200	14869.4250
64.4300	14898.6100
64.4400	15464.9075
64.4500	15394.7950
64.4600	15215.8900
64.4700	15887.8725
64.4800	15378.9075
64.4900	15235.5050
64.5000	15589.0575
64.5100	15931.0650
64.5200	15517.6500
64.5300	15083.5425
64.5400	15156.3875
64.5500	15734.2350
64.5600	15544.6050
64.5700	15554.2075
64.5800	15622.4050
64.5900	15177.5750
64.6000	16000.4250
64.6100	16344.7700
64.6200	15416.5500
64.6300	15579.4350
64.6400	15791.0775
64.6500	15751.6225
64.6600	16435.7000
64.6700	16438.2625
64.6800	16045.2675
64.6900	16652.0225
64.7000	16772.0100
64.7100	16685.0200
64.7200	16406.7875
64.7300	16294.3575
64.7400	16452.2000
64.7500	16240.2475
64.7600	16764.0000
64.7700	17193.0000
64.7800	17474.3650
64.7900	17598.2275
64.8000	17720.4825
64.8100	18009.4950
64.8200	18135.2250
64.8300	17825.7375
64.8400	18135.3525
64.8500	18600.0875
64.8600	18946.3175
64.8700	18731.5050
64.8800	19155.4325
64.8900	18859.4400
64.9000	18953.5775
64.9100	19068.4800
64.9200	19225.7975
64.9300	19033.5850
64.9400	18461.7375
64.9500	18251.9425
64.9600	18776.9200
64.9700	18247.4925
64.9800	18541.6525
64.9900	18334.0600
65.0000	18259.2000
65.0100	18085.6225
65.0200	17735.9525
65.0300	18063.6775
65.0400	18157.4825
65.0500	17917.3850
65.0600	17953.3675
65.0700	17776.6325
65.0800	17471.2525
65.0900	17684.1175
65.1000	17211.4400
65.1100	16959.6300
65.1200	16907.5175
65.1300	17248.4550
65.1400	16730.6300
65.1500	16408.0850
65.1600	16418.2625
65.1700	16175.3925
65.1800	17028.4275
65.1900	17067.9325
65.2000	16523.0525
65.2100	16512.2150
65.2200	16395.3675
65.2300	15860.4125
65.2400	15690.9025
65.2500	16108.3575
65.2600	16542.3900
65.2700	15989.5775
65.2800	15465.3025
65.2900	15752.7900
65.3000	16136.9075
65.3100	16152.3350
65.3200	15876.0500
65.3300	15812.8625
65.3400	15109.3800
65.3500	15234.2975
65.3600	15461.8875
65.3700	15204.3775
65.3800	15450.7900
65.3900	15524.3025
65.4000	15670.8250
65.4100	15678.1350
65.4200	16013.4025
65.4300	16270.7450
65.4400	15623.4325
65.4500	15352.4900
65.4600	15243.5000
65.4700	15781.2300
65.4800	15385.5325
65.4900	14767.7375
65.5000	15300.2000
65.5100	15564.1100
65.5200	15314.1150
65.5300	15105.1575
65.5400	15297.3450
65.5500	14943.8300
65.5600	15085.6975
65.5700	15461.2675
65.5800	15409.1275
65.5900	15379.4700
65.6000	15127.2925
65.6100	15229.1975
65.6200	15155.3575
65.6300	14937.5325
65.6400	15011.2650
65.6500	14934.8825
65.6600	15731.2575
65.6700	15932.1875
65.6800	15251.8950
65.6900	15305.6375
65.7000	15229.9775
65.7100	15400.5475
65.7200	15185.6150
65.7300	14997.8175
65.7400	15145.4550
65.7500	15404.2925
65.7600	15377.3050
65.7700	14788.3950
65.7800	14450.7675
65.7900	14897.6100
65.8000	15164.8125
65.8100	15187.2450
65.8200	14826.2650
65.8300	14997.1700
65.8400	14866.6200
65.8500	15105.8950
65.8600	15722.4775
65.8700	15386.4325
65.8800	14927.6025
65.8900	14642.2850
65.9000	14825.2825
65.9100	14938.1950
65.9200	14504.4625
65.9300	14468.4850
65.9400	14601.8000
65.9500	14684.2250
65.9600	15043.4525
65.9700	15302.6175
65.9800	15082.9650
65.9900	15000.0000
66.0000	15114.4025
66.0100	15327.9275
66.0200	15535.8150
66.0300	15316.5400
66.0400	15728.7150
66.0500	15616.6375
66.0600	15622.2150
66.0700	15586.5250
66.0800	15350.8875
66.0900	15067.5925
66.1000	15279.1425
66.1100	15201.7500
66.1200	14896.3275
66.1300	15019.5675
66.1400	15197.4450
66.1500	14853.0325
66.1600	15379.7250
66.1700	15025.7650
66.1800	14875.3400
66.1900	14857.9975
66.2000	14913.3250
66.2100	15363.8650
66.2200	15018.9075
66.2300	14423.6350
66.2400	14485.8250
66.2500	14815.7200
66.2600	15241.5775
66.2700	15147.6225
66.2800	15247.7350
66.2900	14971.2575
66.3000	15220.6325
66.3100	15383.8900
66.3200	15298.9050
66.3300	15405.6475
66.3400	15437.3675
66.3500	14738.6925
66.3600	14870.2350
66.3700	15134.8350
66.3800	15057.1050
66.3900	14966.1850
66.4000	15265.4500
66.4100	15316.2050
66.4200	15728.8525
66.4300	14592.9650
66.4400	14258.9850
66.4500	14989.2800
66.4600	15040.2125
66.4700	14920.3275
66.4800	14950.3950
66.4900	14916.2800
66.5000	14988.1600
66.5100	15079.6250
66.5200	15137.7675
66.5300	14835.3225
66.5400	14657.8250
66.5500	15476.3475
66.5600	15259.3825
66.5700	15288.6625
66.5800	14507.4675
66.5900	14220.7600
66.6000	14706.9100
66.6100	15030.0500
66.6200	14869.7200
66.6300	14686.9325
66.6400	14976.5775
66.6500	15020.5425
66.6600	15665.4600
66.6700	15607.1575
66.6800	15227.9925
66.6900	15007.8475
66.7000	14841.2050
66.7100	14963.0700
66.7200	14866.1700
66.7300	14678.7400
66.7400	14858.9900
66.7500	15209.0825
66.7600	14949.1150
66.7700	14745.6300
66.7800	14378.4450
66.7900	14604.8225
66.8000	15017.1900
66.8100	15179.2625
66.8200	15387.7550
66.8300	15099.5950
66.8400	15208.5500
66.8500	15145.7275
66.8600	15087.4925
66.8700	15233.3900
66.8800	15595.8900
66.8900	15350.0075
66.9000	15758.2200
66.9100	15945.8275
66.9200	15712.6450
66.9300	14983.8575
66.9400	14953.9775
66.9500	15216.4250
66.9600	15058.6475
66.9700	15320.2925
66.9800	15271.1250
66.9900	14904.7900
67.0000	15036.9800
67.0100	15528.1800
67.0200	15878.6150
67.0300	15064.9775
67.0400	14666.9650
67.0500	15081.8975
67.0600	15220.8750
67.0700	15079.6600
67.0800	14995.9750
67.0900	15381.7375
67.1000	15753.1725
67.1100	15123.9625
67.1200	14646.9250
67.1300	14691.0675
67.1400	14509.4575
67.1500	14607.4250
67.1600	14828.2900
67.1700	15281.0950
67.1800	15329.6750
67.1900	15026.6500
67.2000	14672.4625
67.2100	14931.0925
67.2200	15646.0350
67.2300	15738.2650
67.2400	15327.6300
67.2500	15150.3600
67.2600	14661.8575
67.2700	15182.2600
67.2800	15218.2325
67.2900	15063.2025
67.3000	15256.4800
67.3100	15159.8100
67.3200	15285.8800
67.3300	14705.7500
67.3400	14656.7500
67.3500	14964.3525
67.3600	15347.1625
67.3700	15561.4125
67.3800	15179.1950
67.3900	15293.1875
67.4000	15036.9325
67.4100	14557.9675
67.4200	15175.3125
67.4300	15618.7900
67.4400	15015.8300
67.4500	14684.4650
67.4600	15144.2400
67.4700	15180.7800
67.4800	15244.4900
67.4900	15233.9400
67.5000	15327.7775
67.5100	15638.2125
67.5200	15659.2900
67.5300	15213.8475
67.5400	15325.7075
67.5500	15046.6875
67.5600	14978.3175
67.5700	15382.1500
67.5800	15257.8450
67.5900	14870.9350
67.6000	15247.1300
67.6100	15330.4475
67.6200	14807.4275
67.6300	14633.3325
67.6400	14941.0600
67.6500	15456.1125
67.6600	15206.2775
67.6700	14820.6425
67.6800	14819.4225
67.6900	15108.2150
67.7000	15458.1575
67.7100	15599.1625
67.7200	14903.9650
67.7300	14416.5800
67.7400	14566.7050
67.7500	14588.6000
67.7600	15192.8125
67.7700	15502.5900
67.7800	15889.2225
67.7900	15476.8150
67.8000	14755.8650
67.8100	15081.7550
67.8200	15646.7700
67.8300	15538.1600
67.8400	15008.7825
67.8500	14874.5075
67.8600	15508.1175
67.8700	15696.5900
67.8800	15536.3900
67.8900	15091.5700
67.9000	14705.2025
67.9100	14885.8850
67.9200	15325.9000
67.9300	15584.5500
67.9400	15327.6050
67.9500	14862.1000
67.9600	14953.3600
67.9700	15265.5325
67.9800	15350.0000
67.9900	15655.3900
68.0000	15571.2600
68.0100	15500.0000
68.0200	15170.4000
68.0300	15281.8900
68.0400	15049.4150
68.0500	15128.5200
68.0600	15126.8200
68.0700	15197.5500
68.0800	15050.4675
68.0900	14495.8025
68.1000	14146.0700
68.1100	14655.9250
68.1200	15232.0675
68.1300	15695.4525
68.1400	15134.8925
68.1500	15199.8000
68.1600	15426.1875
68.1700	14882.6875
68.1800	14739.6475
68.1900	14851.7925
68.2000	14895.4925
68.2100	15374.0525
68.2200	15355.5625
68.2300	15173.9875
68.2400	14890.3975
68.2500	15382.9150
68.2600	15782.1200
68.2700	15230.9375
68.2800	15218.4425
68.2900	15287.8675
68.3000	15234.8125
68.3100	15289.4300
68.3200	15183.2975
68.3300	15072.7250
68.3400	14807.6225
68.3500	14740.9000
68.3600	15028.6050
68.3700	14951.6775
68.3800	15149.7025
68.3900	15467.8875
68.4000	15041.7150
68.4100	15225.0750
68.4200	15608.5925
68.4300	15288.8200
68.4400	15193.7875
68.4500	15313.3700
68.4600	15277.4900
68.4700	15334.5750
68.4800	15342.5075
68.4900	15297.1050
68.5000	15066.0075
68.5100	14826.4125
68.5200	15032.1600
68.5300	15073.0075
68.5400	14772.5700
68.5500	15402.2850
68.5600	15623.0500
68.5700	15829.0175
68.5800	15494.8925
68.5900	15176.7125
68.6000	15297.3400
68.6100	15715.8850
68.6200	15332.3150
68.6300	14856.5000
68.6400	15111.0025
68.6500	15598.8850
68.6600	15552.9200
68.6700	15218.7900
68.6800	15765.8425
68.6900	15499.8550
68.7000	14723.2325
68.7100	15112.6650
68.7200	15698.2950
68.7300	15653.2250
68.7400	15091.1575
68.7500	14419.9450
68.7600	14557.2925
68.7700	15187.1450
68.7800	15503.2600
68.7900	15202.3000
68.8000	15126.6000
68.8100	15713.2375
68.8200	15585.8900
68.8300	15234.3975
68.8400	15006.3000
68.8500	14961.9725
68.8600	15002.5725
68.8700	15184.1925
68.8800	15561.0400
68.8900	15372.3700
68.9000	14927.1575
68.9100	14704.3675
68.9200	14523.2525
68.9300	14849.0100
68.9400	15179.1800
68.9500	15250.0000
68.9600	15381.3325
68.9700	15278.1625
68.9800	15491.1325
68.9900	15218.2300
69.0000	15185.9400
69.0100	15495.6675
69.0200	15433.1025
69.0300	14961.4450
69.0400	14776.1700
69.0500	15266.9825
69.0600	15335.6650
69.0700	15366.6775
69.0800	15721.3875
69.0900	15516.7950
69.1000	14955.0350
69.1100	14961.7450
69.1200	15021.4425
69.1300	14660.0250
69.1400	15063.3775
69.1500	15247.6875
69.1600	15114.5450
69.1700	15173.5500
69.1800	15264.1575
69.1900	15045.9375
69.2000	15104.2675
69.2100	15178.5300
69.2200	15290.0775
69.2300	15119.8975
69.2400	15211.1500
69.2500	15259.6300
69.2600	15143.3650
69.2700	14993.3925
69.2800	15400.0000
69.2900	15476.7825
69.3000	15599.0350
69.3100	15808.6600
69.3200	15570.9225
69.3300	15319.9075
69.3400	15136.6075
69.3500	15237.0000
69.3600	15158.1925
69.3700	14946.4150
69.3800	15261.2875
69.3900	15263.1625
69.4000	15223.6100
69.4100	15327.7475
69.4200	15201.4850
69.4300	14850.2425
69.4400	15016.3500
69.4500	15534.1675
69.4600	15982.8675
69.4700	15935.0375
69.4800	15501.4925
69.4900	15385.3300
69.5000	15411.7725
69.5100	15546.1400
69.5200	15800.0425
69.5300	15659.8150
69.5400	15413.7750
69.5500	15361.7575
69.5600	15249.1200
69.5700	15775.8225
69.5800	15170.7875
69.5900	14793.1775
69.6000	14865.5275
69.6100	15040.8650
69.6200	14853.5525
69.6300	15008.1150
69.6400	15339.5225
69.6500	15527.1425
69.6600	15379.1000
69.6700	15159.3625
69.6800	15299.1800
69.6900	15465.3275
69.7000	15628.8125
69.7100	15601.3850
69.7200	15192.1475
69.7300	15267.3450
69.7400	15284.7850
69.7500	15425.4125
69.7600	15242.8000
69.7700	15261.8975
69.7800	15316.6675
69.7900	15328.3475
69.8000	15660.3200
69.8100	15741.6250
69.8200	15775.0250
69.8300	15321.5950
69.8400	15373.3025
69.8500	15390.0375
69.8600	15478.2475
69.8700	15440.0900
69.8800	15668.0025
69.8900	15480.4575
69.9000	15559.6250
69.9100	15521.9325
69.9200	15478.3050
69.9300	15692.7825
69.9400	15713.5350
69.9500	15520.5175
69.9600	15159.3400
69.9700	15300.6650
69.9800	16125.4775
69.9900	16537.8825
70.0000	15677.4925
70.0100	15144.0125
70.0200	15071.7275
70.0300	14939.0275
70.0400	15393.7475
70.0500	15906.5925
70.0600	15847.8325
70.0700	15755.0750
70.0800	15309.6850
70.0900	15128.2500
70.1000	15480.7550
70.1100	15656.4875
70.1200	15574.0725
70.1300	15197.7800
70.1400	14783.9450
70.1500	15013.5950
70.1600	15166.6675
70.1700	15224.4550
70.1800	15238.4450
70.1900	15140.9250
70.2000	14880.5900
70.2100	15302.8375
70.2200	15891.1125
70.2300	15542.3300
70.2400	15524.2900
70.2500	15743.5125
70.2600	15546.3825
70.2700	15467.9075
70.2800	15448.7700
70.2900	15295.1150
70.3000	15647.8675
70.3100	15557.0575
70.3200	15525.4000
70.3300	15762.2500
70.3400	15550.9600
70.3500	14979.7325
70.3600	15036.2225
70.3700	14874.2025
70.3800	15278.4600
70.3900	15574.0925
70.4000	15358.8850
70.4100	14997.4775
70.4200	14871.8575
70.4300	15348.4750
70.4400	15555.1975
70.4500	15595.8600
70.4600	15456.2025
70.4700	15291.6675
70.4800	15673.8350
70.4900	15923.9250
70.5000	15537.8600
70.5100	15567.4550
70.5200	16135.7750
70.5300	15595.0725
70.5400	15067.0400
70.5500	15040.4925
70.5600	15260.9475
70.5700	15212.9000
70.5800	15424.1175
70.5900	15481.4900
70.6000	15255.9475
70.6100	15303.6050
70.6200	15206.9525
70.6300	14848.2125
70.6400	15035.9075
70.6500	15342.9075
70.6600	15564.7975
70.6700	15496.6375
70.6800	15160.0200
70.6900	14953.6400
70.7000	15121.5300
70.7100	15250.8000
70.7200	15437.2850
70.7300	15528.0375
70.7400	15658.3800
70.7500	15568.9275
70.7600	15159.1650
70.7700	15147.6500
70.7800	15296.1475
70.7900	15197.1200
70.8000	15303.5475
70.8100	15167.7925
70.8200	15157.3950
70.8300	15472.1000
70.8400	15055.9600
70.8500	15185.2475
70.8600	15219.4100
70.8700	15433.1000
70.8800	15668.5525
70.8900	15207.3900
70.9000	15215.5725
70.9100	15502.9900
70.9200	15798.1700
70.9300	15775.6575
70.9400	15366.3550
70.9500	15346.8600
70.9600	15281.1425
70.9700	15453.7625
70.9800	15340.9300
70.9900	15346.1675
71.0000	15603.0400
71.0100	15260.2100
71.0200	15298.0125
71.0300	15112.3800
71.0400	14707.5375
71.0500	14831.1225
71.0600	14983.7800
71.0700	15067.5375
71.0800	15325.0600
71.0900	15264.5900
71.1000	15633.1800
71.1100	15580.1725
71.1200	15483.7175
71.1300	15646.0675
71.1400	16064.8775
71.1500	15671.8725
71.1600	14973.4200
71.1700	15148.2275
71.1800	15411.8675
71.1900	15450.0000
71.2000	15147.2700
71.2100	15369.8900
71.2200	15482.7675
71.2300	15248.3625
71.2400	15273.1850
71.2500	15568.4325
71.2600	15929.5525
71.2700	15826.2325
71.2800	15515.3350
71.2900	15181.8525
71.3000	15826.7875
71.3100	15920.6300
71.3200	15682.7900
71.3300	15331.7975
71.3400	15350.8025
71.3500	15466.8175
71.3600	15271.3350
71.3700	15155.5125
71.3800	15116.5475
71.3900	15033.1150
71.4000	15557.2100
71.4100	15799.9100
71.4200	15516.0350
71.4300	15516.9425
71.4400	15872.7300
71.4500	15805.2500
71.4600	15855.7325
71.4700	15466.2750
71.4800	15500.1425
71.4900	15544.4250
71.5000	15077.8125
71.5100	15510.8600
71.5200	15733.4025
71.5300	15483.5325
71.5400	15760.6175
71.5500	15961.0925
71.5600	16066.4750
71.5700	16249.7025
71.5800	15829.0150
71.5900	15572.2550
71.6000	15389.4475
71.6100	15432.8725
71.6200	15522.1375
71.6300	15500.1350
71.6400	15428.0200
71.6500	15333.6450
71.6600	15399.5025
71.6700	15659.9950
71.6800	15899.2550
71.6900	15524.8450
71.7000	15487.7175
71.7100	15837.2250
71.7200	16220.4800
71.7300	15930.7850
71.7400	15110.0950
71.7500	14910.2525
71.7600	15341.4075
71.7700	15544.3525
71.7800	15505.9400
71.7900	16144.0275
71.8000	16307.2025
71.8100	15820.4950
71.8200	15836.6950
71.8300	15730.0400
71.8400	15330.8075
71.8500	15150.3600
71.8600	15353.0900
71.8700	15774.2300
71.8800	16328.6500
71.8900	16050.3175
71.9000	15668.3100
71.9100	15281.8450
71.9200	15379.8850
71.9300	15582.4500
71.9400	15857.8025
71.9500	16268.2225
71.9600	15518.4475
71.9700	15247.1100
71.9800	15623.6775
71.9900	15580.6225
72.0000	15373.9300
72.0100	15305.7300
72.0200	15376.5350
72.0300	15646.2000
72.0400	15384.2300
72.0500	15358.1075
72.0600	15439.0800
72.0700	15520.6675
72.0800	15402.9675
72.0900	15545.7750
72.1000	15568.5075
72.1100	15451.2475
72.1200	15896.2550
72.1300	15932.0725
72.1400	15816.6675
72.1500	15718.6600
72.1600	15797.3025
72.1700	15877.5500
72.1800	15992.1275
72.1900	16202.2650
72.2000	15935.4050
72.2100	15358.7025
72.2200	15584.6400
72.2300	16283.7600
72.2400	16066.3850
72.2500	15729.8200
72.2600	15694.1850
72.2700	15634.9050
72.2800	15610.8450
72.2900	15562.4550
72.3000	15609.2075
72.3100	15975.0725
72.3200	15380.9025
72.3300	15118.2725
72.3400	15524.7700
72.3500	15451.0875
72.3600	15251.7525
72.3700	15238.2975
72.3800	15628.4275
72.3900	15984.6575
72.4000	16228.7500
72.4100	16089.8200
72.4200	15858.6775
72.4300	15443.7500
72.4400	15498.2200
72.4500	15924.6300
72.4600	15684.2725
72.4700	15229.4600
72.4800	15380.2475
72.4900	15425.5800
72.5000	15614.4250
72.5100	15653.0825
72.5200	15287.8025
72.5300	15428.7675
72.5400	15449.3775
72.5500	15334.4000
72.5600	15305.9150
72.5700	15762.1950
72.5800	15769.5225
72.5900	15547.3975
72.6000	15704.0375
72.6100	15601.9575
72.6200	15676.5125
72.6300	15890.6225
72.6400	15874.9225
72.6500	15811.8900
72.6600	16164.4400
72.6700	16302.3725
72.6800	15838.1775
72.6900	15749.9250
72.7000	15651.3375
72.7100	15154.0150
72.7200	15222.2050
72.7300	15479.5950
72.7400	15747.1800
72.7500	15695.6425
72.7600	15557.2575
72.7700	15383.7800
72.7800	15631.0550
72.7900	15539.0950
72.8000	15671.4925
72.8100	15801.3250
72.8200	15655.3425
72.8300	15050.1975
72.8400	14931.2100
72.8500	15214.4875
72.8600	15380.5825
72.8700	15544.4625
72.8800	15744.4225
72.8900	15614.4500
72.9000	15244.6475
72.9100	15206.3650
72.9200	15096.5350
72.9300	14957.4800
72.9400	15124.6125
72.9500	16030.0850
72.9600	16101.0100
72.9700	15809.0150
72.9800	15915.2575
72.9900	15968.1700
73.0000	15801.5025
73.0100	15706.0625
73.0200	15477.3900
73.0300	15689.1125
73.0400	16275.3125
73.0500	16086.9600
73.0600	15744.1250
73.0700	15640.9950
73.0800	15722.4775
73.0900	15698.7100
73.1000	15713.4475
73.1100	15802.8575
73.1200	15526.8575
73.1300	15318.3050
73.1400	15490.1100
73.1500	15842.8425
73.1600	16247.2125
73.1700	16400.0000
73.1800	16041.3425
73.1900	15717.3325
73.2000	15723.7950
73.2100	15661.2750
73.2200	15821.2525
73.2300	15760.4125
73.2400	15323.5875
73.2500	15217.5425
73.2600	15855.9575
73.2700	15537.2500
73.2800	15213.1000
73.2900	15481.2950
73.3000	15238.2975
73.3100	15048.1875
73.3200	15192.7125
73.3300	15550.1850
73.3400	15506.7175
73.3500	15194.4350
73.3600	15261.6825
73.3700	15461.0575
73.3800	15673.9375
73.3900	15609.4425
73.4000	15128.9650
73.4100	15088.5550
73.4200	15137.1675
73.4300	14942.9650
73.4400	15174.4375
73.4500	15764.2450
73.4600	16198.7300
73.4700	16546.7050
73.4800	16097.9575
73.4900	15321.5500
73.5000	15369.6250
73.5100	15988.6350
73.5200	16176.9150
73.5300	15517.5250
73.5400	15369.1200
73.5500	15291.3775
73.5600	15208.3800
73.5700	15129.0850
73.5800	15295.9450
73.5900	15975.1025
73.6000	16070.8575
73.6100	15454.3625
73.6200	15968.1825
73.6300	16117.0025
73.6400	15802.2325
73.6500	15577.3350
73.6600	15483.3325
73.6700	15275.4575
73.6800	15659.1425
73.6900	15987.4425
73.7000	15501.5450
73.7100	15386.8650
73.7200	15603.7825
73.7300	15469.5375
73.7400	15526.3275
73.7500	15934.0350
73.7600	15940.4450
73.7700	15822.9700
73.7800	15972.0650
73.7900	15921.6725
73.8000	15854.0400
73.8100	15877.0175
73.8200	15334.9100
73.8300	15341.3700
73.8400	15570.6825
73.8500	15624.6875
73.8600	15629.3300
73.8700	15286.0300
73.8800	15320.9075
73.8900	15404.7100
73.9000	15335.6975
73.9100	15605.6325
73.9200	15989.6775
73.9300	15951.6400
73.9400	15880.9325
73.9500	15900.0000
73.9600	15735.1175
73.9700	15787.8650
73.9800	15883.3325
73.9900	15595.0425
74.0000	15437.2525
74.0100	15336.8100
74.0200	15626.7150
74.0300	16189.3750
74.0400	16081.2850
74.0500	15965.5575
74.0600	15502.9100
74.0700	15018.9775
74.0800	15389.0500
74.0900	15632.0025
74.1000	15528.1575
74.1100	15678.2800
74.1200	15779.4850
74.1300	15807.6850
74.1400	15812.8300
74.1500	15953.7275
74.1600	16101.2275
74.1700	16164.0600
74.1800	15835.1850
74.1900	15749.7425
74.2000	15966.3725
74.2100	15569.1500
74.2200	15010.9700
74.2300	15228.3250
74.2400	15579.1100
74.2500	15455.8375
74.2600	15384.4150
74.2700	15477.9475
74.2800	15445.1950
74.2900	15491.8675
74.3000	15682.6600
74.3100	15644.2450
74.3200	15332.0950
74.3300	15244.5100
74.3400	15762.4075
74.3500	16301.0400
74.3600	16011.9475
74.3700	15723.1500
74.3800	15716.6675
74.3900	15594.5225
74.4000	15760.8875
74.4100	15764.0725
74.4200	15676.8375
74.4300	15856.1775
74.4400	15854.8575
74.4500	15549.6175
74.4600	15278.0950
74.4700	15281.2475
74.4800	15769.9150
74.4900	15633.8400
74.5000	15356.5200
74.5100	15319.5675
74.5200	15512.9775
74.5300	15791.9450
74.5400	15498.1600
74.5500	15918.8000
74.5600	16035.9525
74.5700	15762.4400
74.5800	15777.4175
74.5900	15735.6900
74.6000	15784.5275
74.6100	15607.2025
74.6200	15328.6350
74.6300	15502.7750
74.6400	15545.3675
74.6500	15628.3550
74.6600	15703.0250
74.6700	15370.2325
74.6800	15681.6250
74.6900	16359.8800
74.7000	15977.8300
74.7100	15230.2175
74.7200	15181.5525
74.7300	15864.6775
74.7400	15779.6975
74.7500	15533.7225
74.7600	15647.2700
74.7700	15911.5250
74.7800	15979.5100
74.7900	15893.0650
74.8000	15846.5375
74.8100	15440.9225
74.8200	15293.9850
74.8300	15336.4975
74.8400	15326.7200
74.8500	15443.8950
74.8600	15667.3925
74.8700	15726.4850
74.8800	15780.3450
74.8900	15632.5250
74.9000	15831.2450
74.9100	16070.0700
74.9200	15601.7775
74.9300	15453.8400
74.9400	15566.6675
74.9500	15566.6675
74.9600	15626.7975
74.9700	15666.6675
74.9800	15686.7000
74.9900	15810.1550
75.0000	15763.1975
75.0100	15803.4375
75.0200	15893.3400
75.0300	15779.9575
75.0400	15679.9975
75.0500	15616.6750
75.0600	15443.3925
75.0700	15809.6875
75.0800	15747.0150
75.0900	15310.2275
75.1000	15403.0150
75.1100	15989.2475
75.1200	16013.8650
75.1300	15743.5325
75.1400	16032.4675
75.1500	16067.2125
75.1600	15713.9900
75.1700	15586.6025
75.1800	15669.7550
75.1900	15676.8175
75.2000	15699.8000
75.2100	15713.4175
75.2200	15889.1450
75.2300	16076.3825
75.2400	16385.3175
75.2500	16178.7150
75.2600	15916.6675
75.2700	15797.3575
75.2800	15657.0275
75.2900	16252.6700
75.3000	16067.3575
75.3100	15322.2250
75.3200	15248.9525
75.3300	15687.5400
75.3400	15837.2650
75.3500	15753.5650
75.3600	15951.5800
75.3700	15941.3125
75.3800	16041.5575
75.3900	16302.2900
75.4000	16135.5675
75.4100	15936.9425
75.4200	16154.4050
75.4300	16118.6000
75.4400	16131.8475
75.4500	16193.7400
75.4600	15909.3675
75.4700	15772.9075
75.4800	15790.1075
75.4900	15911.8900
75.5000	15980.2275
75.5100	15274.7675
75.5200	15116.2200
75.5300	15708.7550
75.5400	16233.3500
75.5500	16229.0450
75.5600	15922.2950
75.5700	15533.5050
75.5800	15557.2250
75.5900	15976.2350
75.6000	16058.1725
75.6100	15855.1425
75.6200	15796.2425
75.6300	15767.3850
75.6400	15427.8600
75.6500	15620.5850
75.6600	16018.1925
75.6700	16021.2225
75.6800	16301.3900
75.6900	16454.5925
75.7000	16193.3550
75.7100	15813.8875
75.7200	15728.6850
75.7300	16039.0050
75.7400	15793.9225
75.7500	15401.7100
75.7600	15755.8850
75.7700	15706.1425
75.7800	15741.6925
75.7900	15844.9525
75.8000	15901.1475
75.8100	15983.3325
75.8200	16424.9400
75.8300	16291.8275
75.8400	15993.1425
75.8500	16009.8075
75.8600	15859.7925
75.8700	16093.0900
75.8800	16176.5275
75.8900	15909.8950
75.9000	15741.2225
75.9100	15905.6725
75.9200	15775.8300
75.9300	15416.9100
75.9400	15769.8000
75.9500	16100.0000
75.9600	16051.0850
75.9700	16124.2600
75.9800	16043.5350
75.9900	15982.2175
76.0000	16036.2150
76.0100	16216.1350
76.0200	16108.6100
76.0300	15930.4625
76.0400	15594.3750
76.0500	15435.0175
76.0600	15717.6275
76.0700	15629.5675
76.0800	15479.2750
76.0900	15665.8550
76.1000	15910.1375
76.1100	16039.0075
76.1200	16407.9175
76.1300	16386.8025
76.1400	16112.2850
76.1500	15640.7525
76.1600	15895.5500
76.1700	15971.6550
76.1800	15993.4500
76.1900	16069.3075
76.2000	16253.0850
76.2100	16705.8300
76.2200	16754.0500
76.2300	16221.9625
76.2400	15916.6675
76.2500	15673.5625
76.2600	15636.1125
76.2700	15655.5700
76.2800	15697.1850
76.2900	16106.7425
76.3000	16524.8625
76.3100	16426.6100
76.3200	16082.1625
76.3300	15600.4825
76.3400	15835.3450
76.3500	15795.1325
76.3600	15904.7925
76.3700	15901.9975
76.3800	15874.5900
76.3900	15961.2100
76.4000	16175.7250
76.4100	15758.6775
76.4200	15779.1650
76.4300	16293.8025
76.4400	16491.4625
76.4500	16194.3075
76.4600	15727.2525
76.4700	15789.3725
76.4800	15833.8275
76.4900	15711.2825
76.5000	16070.4300
76.5100	16233.8925
76.5200	15966.1975
76.5300	15833.3325
76.5400	15659.2675
76.5500	15368.9675
76.5600	15781.6725
76.5700	15596.4325
76.5800	15328.2825
76.5900	15191.7950
76.6000	15258.1600
76.6100	15471.9650
76.6200	15693.1250
76.6300	15640.2425
76.6400	15693.0575
76.6500	15842.9850
76.6600	15782.4550
76.6700	15820.1625
76.6800	15989.4400
76.6900	16153.4650
76.7000	15850.2450
76.7100	15486.9225
76.7200	15435.9450
76.7300	15681.3025
76.7400	15965.6325
76.7500	16127.0750
76.7600	16077.3750
76.7700	16067.4175
76.7800	15895.1900
76.7900	15897.0050
76.8000	15853.0225
76.8100	15935.4475
76.8200	16718.4425
76.8300	16923.5600
76.8400	16377.4075
76.8500	16309.0275
76.8600	15738.3850
76.8700	14957.0650
76.8800	15064.6775
76.8900	15341.0025
76.9000	15421.7725
76.9100	15632.5625
76.9200	15488.0650
76.9300	15629.1275
76.9400	16075.4100
76.9500	16274.2800
76.9600	16019.0450
76.9700	15761.6025
76.9800	15819.7125
76.9900	15950.5050
77.0000	16028.7825
77.0100	15915.6975
77.0200	16018.0875
77.0300	16224.2075
77.0400	16285.8425
77.0500	15974.0425
77.0600	15666.2350
77.0700	15655.0025
77.0800	15300.0325
77.0900	15543.6225
77.1000	15962.0725
77.1100	15791.7725
77.1200	15822.3775
77.1300	15950.0000
77.1400	15969.1475
77.1500	15906.7550
77.1600	15993.5600
77.1700	15975.6000
77.1800	15883.3325
77.1900	15644.1725
77.2000	15629.2700
77.2100	15702.1825
77.2200	15628.4175
77.2300	15781.6525
77.2400	15782.8375
77.2500	15664.2175
77.2600	15420.6450
77.2700	15584.4250
77.2800	15766.4575
77.2900	15544.7275
77.3000	15502.6250
77.3100	15681.2600
77.3200	16081.7525
77.3300	16478.9600
77.3400	16456.8200
77.3500	16245.0175
77.3600	16109.4125
77.3700	15894.9250
77.3800	15614.0300
77.3900	15490.4625
77.4000	15464.2600
77.4100	15640.7150
77.4200	15430.5600
77.4300	15500.3250
77.4400	16016.8900
77.4500	16073.7100
77.4600	15995.2550
77.4700	15807.0550
77.4800	15697.6325
77.4900	15990.5125
77.5000	16011.9050
77.5100	15969.0350
77.5200	15833.3875
77.5300	15797.5725
77.5400	15778.6275
77.5500	15509.6550
77.5600	15480.8600
77.5700	16023.3725
77.5800	16233.4775
77.5900	15962.1150
77.6000	15548.0075
77.6100	15504.5075
77.6200	15690.3825
77.6300	15666.7850
77.6400	15816.2900
77.6500	15681.5300
77.6600	15457.1625
77.6700	15621.0375
77.6800	15664.4925
77.6900	15913.4850
77.7000	16216.4875
77.7100	16010.2450
77.7200	15835.6575
77.7300	15897.4725
77.7400	15942.8275
77.7500	15940.5075
77.7600	15990.2800
77.7700	16270.5775
77.7800	16355.1150
77.7900	16131.5375
77.8000	15864.8900
77.8100	15911.2425
77.8200	16118.6875
77.8300	16354.0175
77.8400	16217.8575
77.8500	16064.0675
77.8600	15739.8025
77.8700	15447.7100
77.8800	15869.2550
77.8900	16228.4250
77.9000	15823.6625
77.9100	15462.1075
77.9200	15802.7350
77.9300	16206.4525
77.9400	16356.8175
77.9500	16220.1025
77.9600	15799.3175
77.9700	15829.4500
77.9800	16612.9525
77.9900	16990.9575
78.0000	16687.3075
78.0100	16074.2375
78.0200	15872.9825
78.0300	15853.1575
78.0400	15586.9650
78.0500	15572.9400
78.0600	15723.4000
78.0700	15605.9400
78.0800	15748.0300
78.0900	15931.0950
78.1000	16502.6425
78.1100	16855.5000
78.1200	16358.1300
78.1300	16260.0825
78.1400	16404.9925
78.1500	16184.9750
78.1600	16288.3350
78.1700	16445.5600
78.1800	16256.1475
78.1900	16086.1275
78.2000	15785.6775
78.2100	15687.1625
78.2200	15766.6675
78.2300	15502.4350
78.2400	15479.2800
78.2500	15928.0100
78.2600	16553.4425
78.2700	16302.9150
78.2800	15968.2150
78.2900	15835.2975
78.3000	15900.2050
78.3100	16283.5150
78.3200	16195.4675
78.3300	16094.2600
78.3400	16062.9925
78.3500	16473.3775
78.3600	17085.5700
78.3700	16974.5925
78.3800	16231.8600
78.3900	15579.0025
78.4000	15571.7050
78.4100	15707.2500
78.4200	15794.1650
78.4300	15791.3425
78.4400	16128.7375
78.4500	16781.6275
78.4600	17040.5875
78.4700	16459.2450
78.4800	16101.3575
78.4900	16176.0750
78.5000	16079.8425
78.5100	15736.6000
78.5200	15843.7350
78.5300	16346.6750
78.5400	16155.0325
78.5500	16179.1050
78.5600	16442.7350
78.5700	16393.5950
78.5800	16209.0025
78.5900	16043.6075
78.6000	16122.1725
78.6100	16273.0475
78.6200	16326.0625
78.6300	16239.3850
78.6400	16035.1525
78.6500	15275.8400
78.6600	15865.5025
78.6700	16613.3675
78.6800	16317.3700
78.6900	16187.5550
78.7000	16376.2575
78.7100	16265.3325
78.7200	15773.6050
78.7300	15889.9525
78.7400	16504.4800
78.7500	16391.3600
78.7600	15940.5100
78.7700	16107.4675
78.7800	16277.0550
78.7900	16336.5000
78.8000	16004.0475
78.8100	15786.4775
78.8200	16185.4400
78.8300	16442.7075
78.8400	16403.1325
78.8500	16141.7200
78.8600	15648.0275
78.8700	15653.0100
78.8800	15615.7550
78.8900	15527.0200
78.9000	15656.2075
78.9100	15615.6975
78.9200	15915.2675
78.9300	16452.8500
78.9400	16219.2625
78.9500	15930.1475
78.9600	15835.6000
78.9700	15873.7475
78.9800	16207.9725
78.9900	16345.8975
79.0000	16232.4450
79.0100	16250.8800
79.0200	16232.4625
79.0300	16073.1150
79.0400	15981.2925
79.0500	15947.9600
79.0600	15521.8400
79.0700	15536.6400
79.0800	15828.0500
79.0900	16186.5700
79.1000	16431.3025
79.1100	16182.9850
79.1200	15962.6150
79.1300	16232.3825
79.1400	16055.5150
79.1500	15490.4050
79.1600	15673.6950
79.1700	15901.2775
79.1800	16307.6825
79.1900	16461.1975
79.2000	15935.7975
79.2100	15603.3125
79.2200	15632.0225
79.2300	15692.6700
79.2400	15643.9925
79.2500	15684.0025
79.2600	15712.6700
79.2700	15711.3275
79.2800	15835.9725
79.2900	16140.5825
79.3000	15644.9925
79.3100	15303.2225
79.3200	15636.5375
79.3300	15550.1850
79.3400	15814.2650
79.3500	16082.7500
79.3600	16193.8050
79.3700	16538.4175
79.3800	16420.3675
79.3900	16386.4025
79.4000	16570.6100
79.4100	16087.5000
79.4200	15357.2325
79.4300	15696.2375
79.4400	16380.9175
79.4500	16084.2850
79.4600	15502.4600
79.4700	15817.5750
79.4800	16404.8500
79.4900	16287.3550
79.5000	16206.3075
79.5100	16204.9650
79.5200	16470.3500
79.5300	16470.8050
79.5400	15849.8625
79.5500	15858.9925
79.5600	15930.5950
79.5700	15867.0575
79.5800	15617.0775
79.5900	15534.0775
79.6000	15992.1550
79.6100	16259.2975
79.6200	16155.0950
79.6300	15982.9950
79.6400	15870.1875
79.6500	15926.2800
79.6600	16120.8200
79.6700	16328.1800
79.6800	16472.4175
79.6900	16293.6875
79.7000	16079.5075
79.7100	16142.8900
79.7200	16253.8175
79.7300	15911.8575
79.7400	15820.9575
79.7500	16020.4725
79.7600	15957.1600
79.7700	15576.9950
79.7800	15472.5625
79.7900	16149.4725
79.8000	16618.5600
79.8100	16262.1750
79.8200	16189.3375
79.8300	16394.4975
79.8400	16351.7350
79.8500	16383.4750
79.8600	16607.6575
79.8700	16529.3275
79.8800	16338.8500
79.8900	16205.4150
79.9000	16042.5075
79.9100	16020.4100
79.9200	15697.8175
79.9300	15666.8750
79.9400	16228.0375
79.9500	16396.2225
79.9600	16022.0825
79.9700	15818.5250
79.9800	16250.1175
79.9900	16333.2900
80.0000	16170.3725
80.0100	15857.4225
80.0200	15546.3025
80.0300	15757.3425
80.0400	16014.7900
80.0500	15798.2800
80.0600	15897.9600
80.0700	16261.0325
80.0800	15942.9275
80.0900	15764.6775
80.1000	16253.3175
80.1100	16577.7450
80.1200	16276.3375
80.1300	15831.7375
80.1400	15590.8800
80.1500	15886.4425
80.1600	16451.3900
80.1700	16509.5475
80.1800	16198.5075
80.1900	15985.3175
80.2000	16118.1175
80.2100	16054.1900
80.2200	15947.9925
80.2300	16036.9450
80.2400	16057.4325
80.2500	15726.8150
80.2600	15872.9100
80.2700	16190.7675
80.2800	15934.1050
80.2900	15779.4825
80.3000	16093.5225
80.3100	16455.0775
80.3200	16548.2150
80.3300	16385.7275
80.3400	16432.7025
80.3500	16649.6750
80.3600	16347.7850
80.3700	15893.2425
80.3800	16117.0225
80.3900	16289.3750
80.4000	16052.5175
80.4100	16007.0675
80.4200	15946.8650
80.4300	16190.9325
80.4400	16475.8800
80.4500	16418.8475
80.4600	16357.4550
80.4700	16239.4800
80.4800	16021.0750
80.4900	16091.6150
80.5000	16353.0200
80.5100	16321.1225
80.5200	16078.6000
80.5300	16086.3100
80.5400	16063.7050
80.5500	15975.8675
80.5600	16406.5300
80.5700	16860.3850
80.5800	16278.5725
80.5900	16009.2275
80.6000	16665.5150
80.6100	16860.3650
80.6200	16328.8400
80.6300	15990.8075
80.6400	15863.8525
80.6500	15683.9600
80.6600	15828.0000
80.6700	16119.4350
80.6800	16060.5025
80.6900	16135.4025
80.7000	16318.3675
80.7100	16370.0625
80.7200	16427.5450
80.7300	16431.6400
80.7400	16334.0550
80.7500	16119.8200
80.7600	16119.2975
80.7700	16473.5800
80.7800	16426.4525
80.7900	16014.8575
80.8000	15960.0625
80.8100	15884.9275
80.8200	15722.4925
80.8300	16057.5625
80.8400	16074.9875
80.8500	16079.1475
80.8600	16532.4400
80.8700	16420.1175
80.8800	16232.4600
80.8900	16583.9900
80.9000	16276.2425
80.9100	16053.1375
80.9200	16471.4225
80.9300	16620.8875
80.9400	16180.5250
80.9500	15840.8475
80.9600	16199.4225
80.9700	16911.7950
80.9800	17149.3525
80.9900	16929.4400
81.0000	16560.5450
81.0100	16258.5400
81.0200	16530.8300
81.0300	16661.2300
81.0400	16222.5025
81.0500	16332.3000
81.0600	16514.5200
81.0700	16544.6025
81.0800	16348.4800
81.0900	16310.1200
81.1000	16127.0950
81.1100	15915.5300
81.1200	16028.9925
81.1300	16139.7100
81.1400	16117.8375
81.1500	16059.1275
81.1600	16230.9425
81.1700	16257.1650
81.1800	16194.0375
81.1900	16718.4000
81.2000	17005.6375
81.2100	16717.6050
81.2200	16511.9575
81.2300	16521.3700
81.2400	16557.5500
81.2500	16413.2850
81.2600	16755.6475
81.2700	16705.0900
81.2800	15967.3725
81.2900	15640.8900
81.3000	16079.5975
81.3100	16331.6225
81.3200	16579.3100
81.3300	16839.3575
81.3400	16525.4075
81.3500	16356.1375
81.3600	16425.7650
81.3700	16669.8725
81.3800	16893.9550
81.3900	16816.6250
81.4000	16460.5325
81.4100	16351.5275
81.4200	16404.5475
81.4300	16257.5975
81.4400	16566.5225
81.4500	16745.5350
81.4600	16480.3950
81.4700	16693.6650
81.4800	16830.4400
81.4900	16507.8200
81.5000	16188.0725
81.5100	16475.1500
81.5200	16771.2875
81.5300	16651.6625
81.5400	16701.2825
81.5500	17017.7150
81.5600	16873.4825
81.5700	16554.6575
81.5800	16543.8675
81.5900	16729.8450
81.6000	17020.7525
81.6100	16715.0050
81.6200	16703.3725
81.6300	16755.3975
81.6400	16948.5425
81.6500	17102.2075
81.6600	16950.0000
81.6700	16705.5650
81.6800	16165.0900
81.6900	16797.3850
81.7000	17240.9225
81.7100	16686.2125
81.7200	16531.4075
81.7300	16934.6175
81.7400	17216.6675
81.7500	16855.0450
81.7600	16676.5450
81.7700	17018.3050
81.7800	17207.6300
81.7900	16983.1800
81.8000	16574.1875
81.8100	16708.4450
81.8200	17452.8550
81.8300	17479.8675
81.8400	17518.6800
81.8500	17600.0825
81.8600	17173.0550
81.8700	17147.0875
81.8800	17327.0575
81.8900	17115.5400
81.9000	17430.5825
81.9100	17830.6100
81.9200	17511.5950
81.9300	17338.7550
81.9400	17580.1850
81.9500	18147.6825
81.9600	18662.1075
81.9700	18466.8450
81.9800	18039.2925
81.9900	18240.6950
82.0000	18354.6850
82.0100	18576.5575
82.0200	19162.1950
82.0300	19040.2475
82.0400	19245.8825
82.0500	19683.3325
82.0600	19881.0825
82.0700	19870.2650
82.0800	19779.5625
82.0900	19959.0975
82.1000	20120.5550
82.1100	20480.9550
82.1200	21019.3350
82.1300	21061.5025
82.1400	21492.3025
82.1500	21847.4675
82.1600	22048.5800
82.1700	22440.9600
82.1800	22102.9175
82.1900	21805.0550
82.2000	22252.0875
82.2100	22968.6750
82.2200	23371.6775
82.2300	23254.1800
82.2400	23055.2200
82.2500	23446.4575
82.2600	23404.8700
82.2700	22906.7975
82.2800	22595.4175
82.2900	22227.5650
82.3000	22416.7250
82.3100	22554.4800
82.3200	22230.1275
82.3300	22074.3950
82.3400	22361.5825
82.3500	22321.8150
82.3600	21807.6100
82.3700	21735.1600
82.3800	21991.6725
82.3900	21760.7700
82.4000	21430.9650
82.4100	21435.6925
82.4200	21546.9575
82.4300	21429.3650
82.4400	21097.2400
82.4500	21172.8800
82.4600	21375.5800
82.4700	21285.3100
82.4800	20888.1800
82.4900	20910.6025
82.5000	20926.2300
82.5100	20422.8675
82.5200	19855.1325
82.5300	19761.3125
82.5400	19809.9050
82.5500	19387.5600
82.5600	19055.5375
82.5700	19016.6675
82.5800	18918.8925
82.5900	18655.6050
82.6000	19086.3675
82.6100	19289.1225
82.6200	18652.5800
82.6300	18324.4550
82.6400	18281.1625
82.6500	18525.0850
82.6600	18589.2350
82.6700	18646.2000
82.6800	18576.1825
82.6900	18110.6425
82.7000	17988.6300
82.7100	17703.3750
82.7200	17436.4850
82.7300	17315.0625
82.7400	17538.5425
82.7500	17990.5950
82.7600	17560.1650
82.7700	17251.4375
82.7800	17355.7725
82.7900	17272.4525
82.8000	17321.7425
82.8100	17170.1975
82.8200	16904.8125
82.8300	16770.4925
82.8400	16461.5425
82.8500	16320.6350
82.8600	16524.5675
82.8700	17020.6475
82.8800	16961.8050
82.8900	16572.5650
82.9000	16859.5975
82.9100	17317.4975
82.9200	17493.1075
82.9300	17666.4525
82.9400	17218.6300
82.9500	16585.5175
82.9600	16703.4300
82.9700	16838.3900
82.9800	16677.7425
82.9900	16477.7725
83.0000	16532.8375
83.0100	16569.9550
83.0200	16659.1250
83.0300	16834.2400
83.0400	16577.6750
83.0500	16227.9450
83.0600	16502.0875
83.0700	16578.7900
83.0800	16402.6500
83.0900	16485.0900
83.1000	16236.0275
83.1100	16220.0550
83.1200	16626.1650
83.1300	16598.4625
83.1400	16399.1475
83.1500	16304.5150
83.1600	16460.9625
83.1700	16745.4375
83.1800	17026.6650
83.1900	16796.7925
83.2000	16486.6250
83.2100	16497.5475
83.2200	16677.2325
83.2300	17093.0250
83.2400	17030.0325
83.2500	16599.1650
83.2600	16477.7725
83.2700	16603.1475
83.2800	16640.4950
83.2900	16546.8950
83.3000	16526.9275
83.3100	16740.9900
83.3200	16725.7300
83.3300	16505.6900
83.3400	16301.9600
83.3500	16575.8250
83.3600	17097.9475
83.3700	16920.1275
83.3800	16737.7025
83.3900	16520.3225
83.4000	16389.7900
83.4100	16915.6600
83.4200	17492.5150
83.4300	17343.9650
83.4400	16799.6400
83.4500	16513.2175
83.4600	16632.8700
83.4700	16764.6300
83.4800	16569.2775
83.4900	16251.3250
83.5000	16117.9900
83.5100	16271.2600
83.5200	16469.9200
83.5300	16593.2800
83.5400	16399.7025
83.5500	16235.2350
83.5600	16300.6275
83.5700	16351.2450
83.5800	15977.1825
83.5900	16014.6550
83.6000	16598.6225
83.6100	16740.1700
83.6200	16579.1825
83.6300	16371.7700
83.6400	15921.1225
83.6500	15988.5250
83.6600	16314.9575
83.6700	16654.3500
83.6800	16835.8100
83.6900	16623.6200
83.7000	16609.1525
83.7100	16375.2350
83.7200	16365.5400
83.7300	16334.0125
83.7400	16014.0575
83.7500	16148.1125
83.7600	16513.1750
83.7700	16778.2725
83.7800	16797.5125
83.7900	16579.4025
83.8000	16347.0900
83.8100	16258.5725
83.8200	16472.3400
83.8300	16324.0050
83.8400	16059.9450
83.8500	16210.8300
83.8600	16351.3425
83.8700	16519.7575
83.8800	16710.2925
83.8900	16851.7150
83.9000	16634.6975
83.9100	16358.1250
83.9200	16503.6875
83.9300	16684.1400
83.9400	16878.7700
83.9500	16862.7625
83.9600	16674.4250
83.9700	16709.6550
83.9800	16485.5475
83.9900	16284.7900
84.0000	16332.9750
84.0100	16597.4625
84.0200	16696.5525
84.0300	16354.7825
84.0400	16557.2925
84.0500	16848.7000
84.0600	16978.6575
84.0700	16589.4125
84.0800	16177.5900
84.0900	16460.8675
84.1000	16676.3100
84.1100	16885.6100
84.1200	16762.5000
84.1300	16457.3850
84.1400	16069.8500
84.1500	16469.2650
84.1600	17327.3775
84.1700	17128.2200
84.1800	16910.1075
84.1900	17024.8850
84.2000	17261.5625
84.2100	17255.2050
84.2200	16307.9000
84.2300	16046.8100
84.2400	16601.5575
84.2500	16505.8000
84.2600	16317.0275
84.2700	16392.1000
84.2800	16349.1675
84.2900	16561.1200
84.3000	16807.9525
84.3100	16405.2175
84.3200	15915.5650
84.3300	16211.6600
84.3400	16767.6525
84.3500	16539.1725
84.3600	16225.2725
84.3700	16291.8175
84.3800	16568.0775
84.3900	16892.0575
84.4000	16765.7150
84.4100	16298.8500
84.4200	16041.7000
84.4300	16300.8575
84.4400	16282.5400
84.4500	16342.4900
84.4600	16374.3925
84.4700	16358.7825
84.4800	16391.3825
84.4900	16083.2850
84.5000	16308.4125
84.5100	16683.3175
84.5200	16849.9475
84.5300	16658.6375
84.5400	16117.0825
84.5500	15958.1150
84.5600	16074.9800
84.5700	16299.3600
84.5800	16408.7025
84.5900	16441.1175
84.6000	16558.4425
84.6100	16267.9525
84.6200	15933.6850
84.6300	16239.5050
84.6400	16831.9825
84.6500	16859.6200
84.6600	16658.3925
84.6700	16765.7725
84.6800	16833.7400
84.6900	16808.1175
84.7000	16626.8975
84.7100	16342.3850
84.7200	16415.1550
84.7300	16550.1750
84.7400	16417.9550
84.7500	16431.7950
84.7600	16665.4650
84.7700	16881.8725
84.7800	16736.8025
84.7900	16178.9375
84.8000	15940.8500
84.8100	16353.1400
84.8200	16700.2500
84.8300	16675.1300
84.8400	16535.4650
84.8500	16383.6075
84.8600	16481.3500
84.8700	16616.3750
84.8800	16559.6850
84.8900	16303.3950
84.9000	16206.5900
84.9100	16504.2625
84.9200	16594.1725
84.9300	16589.0950
84.9400	16635.0900
84.9500	16647.8400
84.9600	16855.9375
84.9700	16877.0750
84.9800	16734.4900
84.9900	16740.2850
85.0000	16848.7900
85.0100	16672.4350
85.0200	16612.0375
85.0300	16678.2225
85.0400	16306.5775
85.0500	16341.9500
85.0600	16601.3675
85.0700	16509.4950
85.0800	16150.9075
85.0900	16075.6075
85.1000	16236.7775
85.1100	16326.8225
85.1200	16606.5500
85.1300	16585.9275
85.1400	16459.6525
85.1500	16408.6025
85.1600	16416.1200
85.1700	16586.3925
85.1800	16790.2550
85.1900	16696.5425
85.2000	16509.7900
85.2100	16547.0400
85.2200	16199.5700
85.2300	16206.9875
85.2400	16804.9250
85.2500	16675.4750
85.2600	16906.1600
85.2700	16888.0500
85.2800	16244.6250
85.2900	16366.6650
85.3000	16695.2650
85.3100	16968.4850
85.3200	16813.9050
85.3300	16291.0875
85.3400	16203.6900
85.3500	16547.8350
85.3600	17182.3950
85.3700	17329.3000
85.3800	16611.6175
85.3900	15998.9100
85.4000	16016.1200
85.4100	16423.1675
85.4200	16650.0000
85.4300	16491.3475
85.4400	16047.1275
85.4500	15868.8400
85.4600	16087.0950
85.4700	16602.7150
85.4800	16702.9025
85.4900	16402.7375
85.5000	16500.8700
85.5100	16143.9375
85.5200	15869.2100
85.5300	16353.8300
85.5400	16640.6200
85.5500	16303.1800
85.5600	16004.6550
85.5700	16058.1950
85.5800	16365.9600
85.5900	16486.2175
85.6000	16551.0450
85.6100	16353.9575
85.6200	15810.9175
85.6300	15647.9950
85.6400	15847.6950
85.6500	16213.2300
85.6600	16322.8700
85.6700	16037.0100
85.6800	15786.4975
85.6900	15975.1575
85.7000	16359.1375
85.7100	16607.9775
85.7200	16726.6450
85.7300	16575.5250
85.7400	16324.4925
85.7500	16168.9225
85.7600	16327.4275
85.7700	16635.3425
85.7800	16524.0000
85.7900	16291.0800
85.8000	16361.9375
85.8100	16301.8050
85.8200	16064.9525
85.8300	16121.1875
85.8400	16292.2800
85.8500	16190.7525
85.8600	16237.5275
85.8700	16486.0050
85.8800	16328.0050
85.8900	16134.6250
85.9000	16241.0200
85.9100	16234.6350
85.9200	16370.2000
85.9300	16550.0000
85.9400	16856.6200
85.9500	16833.6725
85.9600	16199.6300
85.9700	16273.9825
85.9800	16693.0975
85.9900	16714.5975
86.0000	16488.3300
86.0100	16080.2575
86.0200	15678.0750
86.0300	15723.7000
86.0400	16360.8850
86.0500	16819.5875
86.0600	16578.2000
86.0700	16249.8250
86.0800	16438.2675
86.0900	16851.5550
86.1000	16622.7825
86.1100	16363.5275
86.1200	16431.9350
86.1300	16334.8850
86.1400	16241.1575
86.1500	16134.9100
86.1600	15913.1050
86.1700	15885.1350
86.1800	16293.0225
86.1900	16511.7950
86.2000	16378.7775
86.2100	16007.3175
86.2200	15825.8300
86.2300	16131.5700
86.2400	16569.1075
86.2500	16438.7075
86.2600	16177.5600
86.2700	16045.3700
86.2800	16051.0825
86.2900	16313.6650
86.3000	16492.9750
86.3100	16864.6375
86.3200	16890.9500
86.3300	16265.8675
86.3400	16395.6400
86.3500	17015.1600
86.3600	17140.6525
86.3700	16836.8850
86.3800	16253.7550
86.3900	15927.7325
86.4000	16279.0800
86.4100	16598.2875
86.4200	16518.5700
86.4300	16625.3725
86.4400	16731.7525
86.4500	16416.3500
86.4600	16269.1850
86.4700	16446.5850
86.4800	16311.8825
86.4900	16530.1575
86.5000	17140.5925
86.5100	17324.7400
86.5200	17037.7875
86.5300	16817.8450
86.5400	16540.0100
86.5500	16618.1800
86.5600	16962.4925
86.5700	16899.6975
86.5800	17248.0975
86.5900	16993.0375
86.6000	16499.1075
86.6100	16073.9250
86.6200	16141.3550
86.6300	16216.6675
86.6400	16252.8650
86.6500	16227.6725
86.6600	16183.9175
86.6700	16358.2925
86.6800	16507.2125
86.6900	16689.6175
86.7000	16808.6725
86.7100	16688.2450
86.7200	16759.7825
86.7300	16615.6450
86.7400	16350.0000
86.7500	16765.6200
86.7600	17373.9400
86.7700	17278.3450
86.7800	16964.2550
86.7900	16357.4350
86.8000	15671.4725
86.8100	16139.2025
86.8200	16773.9575
86.8300	16496.2225
86.8400	16207.1050
86.8500	16436.6825
86.8600	16853.8700
86.8700	16938.7500
86.8800	16755.4925
86.8900	16600.5150
86.9000	16625.1450
86.9100	16460.7275
86.9200	16207.6350
86.9300	16576.0325
86.9400	16464.9550
86.9500	16004.4150
86.9600	16272.0150
86.9700	16733.2450
86.9800	16580.3875
86.9900	15962.6950
87.0000	15966.7375
87.0100	16350.4775
87.0200	16424.8050
87.0300	16645.4625
87.0400	16768.7525
87.0500	16372.1775
87.0600	16305.5400
87.0700	16183.3750
87.0800	16392.5450
87.0900	16787.6625
87.1000	16533.9450
87.1100	16065.0050
87.1200	16057.8325
87.1300	16751.1600
87.1400	16842.2025
87.1500	16465.5900
87.1600	16506.0375
87.1700	16640.2000
87.1800	16691.1575
87.1900	16667.7725
87.2000	16727.9650
87.2100	16873.9375
87.2200	16709.8375
87.2300	16795.5100
87.2400	16803.8550
87.2500	16780.0350
87.2600	16812.6825
87.2700	16598.1700
87.2800	16662.3925
87.2900	16488.4600
87.3000	16356.7700
87.3100	16231.4425
87.3200	16458.8075
87.3300	17191.2675
87.3400	17383.6900
87.3500	17137.1975
87.3600	16760.5025
87.3700	16601.5500
87.3800	16354.0600
87.3900	16553.4300
87.4000	16569.9500
87.4100	16563.3675
87.4200	16496.5500
87.4300	16673.3875
87.4400	17013.4550
87.4500	16953.0700
87.4600	16973.8750
87.4700	16753.2425
87.4800	16677.2825
87.4900	16483.5650
87.5000	16360.6000
87.5100	16183.9575
87.5200	16136.1025
87.5300	16223.2550
87.5400	16154.3725
87.5500	16020.1900
87.5600	16367.5775
87.5700	16998.8900
87.5800	17034.5250
87.5900	17051.0425
87.6000	17305.1775
87.6100	17292.7275
87.6200	16643.9575
87.6300	16518.9350
87.6400	17225.3825
87.6500	16770.1975
87.6600	16618.5225
87.6700	16738.8425
87.6800	16754.7425
87.6900	16386.3125
87.7000	15968.2550
87.7100	16262.5300
87.7200	16567.8400
87.7300	16381.7725
87.7400	16269.3075
87.7500	16523.0275
87.7600	16660.2675
87.7700	16643.6100
87.7800	16403.6100
87.7900	15982.3525
87.8000	16020.9200
87.8100	16197.6000
87.8200	16445.9400
87.8300	16855.6300
87.8400	16713.7050
87.8500	16524.1450
87.8600	16437.8750
87.8700	16607.1700
87.8800	16588.1750
87.8900	16316.9600
87.9000	16437.6675
87.9100	16418.5000
87.9200	16421.0650
87.9300	16731.2725
87.9400	16847.9375
87.9500	16991.2250
87.9600	17252.2050
87.9700	17187.5675
87.9800	17117.0050
87.9900	16921.7525
88.0000	16696.1925
88.0100	16645.6950
88.0200	16938.2425
88.0300	17067.1850
88.0400	16752.3275
88.0500	17029.7000
88.0600	16465.9850
88.0700	16182.8400
88.0800	16656.7525
88.0900	16801.6600
88.1000	16668.6275
88.1100	16224.9650
88.1200	15943.9175
88.1300	16109.4475
88.1400	16453.0500
88.1500	16704.3600
88.1600	16991.0150
88.1700	16681.2500
88.1800	16549.9400
88.1900	17080.0900
88.2000	17001.1425
88.2100	16616.6825
88.2200	16505.7425
88.2300	16789.3150
88.2400	16788.0575
88.2500	16873.9875
88.2600	17030.9500
88.2700	16984.4975
88.2800	16856.4425
88.2900	16584.4400
88.3000	16782.2975
88.3100	16947.4950
88.3200	16576.1725
88.3300	16444.1950
88.3400	16563.7675
88.3500	16566.4250
88.3600	16708.9900
88.3700	16726.9200
88.3800	16847.4425
88.3900	16715.0200
88.4000	16603.4350
88.4100	16330.7150
88.4200	16116.7650
88.4300	16401.4175
88.4400	16570.7450
88.4500	16760.8950
88.4600	16703.8975
88.4700	16622.4200
88.4800	16759.6900
88.4900	17011.4675
88.5000	17039.0575
88.5100	16970.0000
88.5200	16970.6900
88.5300	17169.8550
88.5400	16937.8525
88.5500	16747.8450
88.5600	16516.0075
88.5700	16642.2925
88.5800	16982.7925
88.5900	17029.3875
88.6000	17013.7025
88.6100	16544.3850
88.6200	16729.5550
88.6300	16976.7550
88.6400	16616.2025
88.6500	16483.4600
88.6600	16332.9000
88.6700	16294.5250
88.6800	16983.4925
88.6900	16595.0850
88.7000	16415.6275
88.7100	16728.4000
88.7200	16682.1600
88.7300	17004.9650
88.7400	17067.2875
88.7500	17098.1025
88.7600	17005.8850
88.7700	16239.3850
88.7800	16314.0425
88.7900	16664.8750
88.8000	17104.6300
88.8100	17709.9925
88.8200	17562.1525
88.8300	16942.5725
88.8400	16661.7925
88.8500	16681.1675
88.8600	16618.1700
88.8700	16264.2550
88.8800	16448.1000
88.8900	16630.0100
88.9000	16677.5525
88.9100	16294.4550
88.9200	16049.2425
88.9300	16231.5350
88.9400	16766.5850
88.9500	17159.5225
88.9600	16984.2150
88.9700	16965.7550
88.9800	17073.3775
88.9900	17118.2550
89.0000	16652.6300
89.0100	16475.0925
89.0200	17262.2550
89.0300	17303.1200
89.0400	16895.6600
89.0500	17190.9475
89.0600	16645.2675
89.0700	16428.6825
89.0800	16577.9725
89.0900	16471.7200
89.1000	16938.4500
89.1100	16934.6850
89.1200	16833.7675
89.1300	16637.5750
89.1400	16507.9650
89.1500	16424.6850
89.1600	16513.1875
89.1700	16910.5025
89.1800	16994.6550
89.1900	16926.9150
89.2000	17021.5750
89.2100	16816.6775
89.2200	16608.2775
89.2300	16646.7550
89.2400	16604.9675
89.2500	16681.1050
89.2600	16709.6825
89.2700	16475.8900
89.2800	16572.3450
89.2900	16623.9125
89.3000	16759.7425
89.3100	16432.8500
89.3200	17121.2050
89.3300	17372.3000
89.3400	17243.0975
89.3500	16709.7000
89.3600	16713.9800
89.3700	16550.8000
89.3800	16382.2750
89.3900	16613.7975
89.4000	16588.8300
89.4100	16916.9825
89.4200	16997.4075
89.4300	16788.0950
89.4400	16842.7675
89.4500	16869.4025
89.4600	16671.3975
89.4700	16664.4575
89.4800	16433.0400
89.4900	16267.3025
89.5000	16836.5000
89.5100	16562.4375
89.5200	16968.0800
89.5300	16555.8450
89.5400	16839.2825
89.5500	16954.5175
89.5600	16358.2550
89.5700	16498.9350
89.5800	16647.7175
89.5900	16802.9025
89.6000	16771.2425
89.6100	16705.7150
89.6200	16481.7800
89.6300	16496.9450
89.6400	16807.1800
89.6500	17115.5100
89.6600	16667.2125
89.6700	16039.9900
89.6800	16242.9375
89.6900	16240.7875
89.7000	16354.6850
89.7100	15857.7575
89.7200	15931.1025
89.7300	16217.7325
89.7400	16257.8225
89.7500	16431.8125
89.7600	17009.7300
89.7700	16868.3050
89.7800	16336.7025
89.7900	16437.2800
89.8000	16380.0550
89.8100	17013.7400
89.8200	16900.7050
89.8300	16462.9725
89.8400	16798.8525
89.8500	16738.6900
89.8600	16854.2875
89.8700	16977.8550
89.8800	17329.8575
89.8900	17250.7600
89.9000	16753.9375
89.9100	16767.4450
89.9200	17022.1725
89.9300	17303.8700
89.9400	17010.9775
89.9500	16291.1525
89.9600	16016.7700
89.9700	16374.8625
89.9800	17132.8825
89.9900	17438.0825
90.0000	17096.3100
90.0100	16892.1475
90.0200	16709.1625
90.0300	16361.2975
90.0400	15910.9425
90.0500	16439.2125
90.0600	17300.8375
90.0700	17106.8325
90.0800	16756.0750
90.0900	16602.9200
90.1000	16724.7000
90.1100	16645.8625
90.1200	16464.4425
90.1300	16841.7350
90.1400	16498.3750
90.1500	16491.7250
90.1600	16909.1875
90.1700	16746.5875
90.1800	17237.3275
90.1900	17306.1850
90.2000	16763.8200
90.2100	16575.4775
90.2200	16085.1875
90.2300	16006.2225
90.2400	16652.6175
90.2500	16693.5925
90.2600	16777.7025
90.2700	17236.3900
90.2800	16989.5350
90.2900	17043.8675
90.3000	16932.5700
90.3100	16718.4675
90.3200	16631.8550
90.3300	17408.2525
90.3400	16899.2500
90.3500	16130.3400
90.3600	16563.3750
90.3700	16992.7025
90.3800	17179.8925
90.3900	16714.7400
90.4000	16762.9925
90.4100	16830.5650
90.4200	17127.6175
90.4300	17206.6975
90.4400	17237.5450
90.4500	16811.6375
90.4600	16747.7525
90.4700	16782.0350
90.4800	16652.2000
90.4900	16452.3675
90.5000	16636.7100
90.5100	16776.5825
90.5200	16488.8875
90.5300	16235.2375
90.5400	16454.4750
90.5500	16877.8525
90.5600	17177.5050
90.5700	17046.6525
90.5800	17214.8225
90.5900	16675.8175
90.6000	16827.7850
90.6100	17674.0175
90.6200	17220.9100
90.6300	16839.7750
90.6400	16803.3975
90.6500	16955.4575
90.6600	17469.6375
90.6700	17296.2075
90.6800	17063.2300
90.6900	16946.6050
90.7000	17002.9650
90.7100	17800.0875
90.7200	17587.9525
90.7300	16904.5175
90.7400	16510.1050
90.7500	16574.8750
90.7600	17093.3425
90.7700	17654.1175
90.7800	17423.3575
90.7900	16876.4225
90.8000	16490.3650
90.8100	16561.9925
90.8200	17004.6400
90.8300	16848.3900
90.8400	16760.1350
90.8500	17089.1950
90.8600	17343.4475
90.8700	17028.0050
90.8800	16760.3275
90.8900	17092.9225
90.9000	17676.4275
90.9100	17321.1400
90.9200	16603.9950
90.9300	16953.3950
90.9400	17131.9125
90.9500	17163.5525
90.9600	16981.8450
90.9700	16821.6325
90.9800	16565.7525
90.9900	16935.9100
91.0000	16560.7075
91.0100	16601.5925
91.0200	16801.3775
91.0300	16340.2800
91.0400	16592.4125
91.0500	16154.9825
91.0600	16152.3750
91.0700	16527.5175
91.0800	17017.8725
91.0900	16435.0425
91.1000	16354.9150
91.1100	16805.5125
91.1200	17350.7475
91.1300	17406.3550
91.1400	16897.6525
91.1500	17218.3175
91.1600	17991.3325
91.1700	17591.4975
91.1800	17005.6725
91.1900	16813.6825
91.2000	16843.0375
91.2100	16181.1025
91.2200	16212.4825
91.2300	17300.0000
91.2400	17194.6625
91.2500	16765.6425
91.2600	17307.7550
91.2700	16901.3500
91.2800	16417.8425
91.2900	16671.3625
91.3000	17221.0425
91.3100	18080.9350
91.3200	17734.7925
91.3300	17279.4650
91.3400	16698.5700
91.3500	16618.0150
91.3600	16773.0300
91.3700	17090.9850
91.3800	17102.8675
91.3900	16910.5875
91.4000	16793.3975
91.4100	16782.3875
91.4200	16532.1100
91.4300	17218.8250
91.4400	16803.0775
91.4500	16439.9300
91.4600	16012.5375
91.4700	16603.3600
91.4800	16293.9175
91.4900	16686.1775
91.5000	16933.6050
91.5100	17128.5550
91.5200	17119.0175
91.5300	17254.6250
91.5400	17319.7700
91.5500	16776.3725
91.5600	15914.5775
91.5700	16574.6575
91.5800	16942.5650
91.5900	16937.9900
91.6000	16655.1175
91.6100	17257.5500
91.6200	16903.6925
91.6300	17015.3275
91.6400	16913.4350
91.6500	16959.9000
91.6600	16657.8900
91.6700	16405.3800
91.6800	16602.6400
91.6900	16923.8175
91.7000	16760.8525
91.7100	16831.1750
91.7200	16782.3075
91.7300	16560.6800
91.7400	16658.8275
91.7500	16841.7850
91.7600	16979.8650
91.7700	17566.7775
91.7800	17673.1875
91.7900	16816.4125
91.8000	17097.2900
91.8100	17427.2000
91.8200	17381.3000
91.8300	17388.9075
91.8400	17491.6975
91.8500	17024.6875
91.8600	16670.9500
91.8700	16432.1475
91.8800	17168.6325
91.8900	17058.3050
91.9000	16149.6850
91.9100	16396.1375
91.9200	16380.1025
91.9300	16542.4850
91.9400	17060.6975
91.9500	17495.6250
91.9600	17065.0625
91.9700	16018.6275
91.9800	16240.7250
91.9900	16930.8625
92.0000	17669.1150
92.0100	17170.6450
92.0200	16318.6375
92.0300	16917.4375
92.0400	17164.3250
92.0500	16871.9850
92.0600	16879.6825
92.0700	16647.1625
92.0800	17310.7300
92.0900	17042.3875
92.1000	16501.2525
92.1100	17345.8250
92.1200	16984.4875
92.1300	16711.7775
92.1400	16868.4750
92.1500	17343.2925
92.1600	17331.1050
92.1700	16383.6225
92.1800	16322.7900
92.1900	17125.7700
92.2000	16861.5000
92.2100	16533.4525
92.2200	16881.6350
92.2300	17217.8875
92.2400	17500.0950
92.2500	17060.0200
92.2600	17477.1850
92.2700	17410.5625
92.2800	17333.3350
92.2900	17130.5725
92.3000	16775.6225
92.3100	16920.0075
92.3200	17481.3725
92.3300	17570.5725
92.3400	16892.0425
92.3500	16643.3950
92.3600	16761.4100
92.3700	16915.8875
92.3800	17251.2200
92.3900	17074.9725
92.4000	16952.9225
92.4100	16671.5175
92.4200	17257.4875
92.4300	16899.2025
92.4400	16170.8050
92.4500	16593.3625
92.4600	16498.2375
92.4700	16317.2750
92.4800	16746.4400
92.4900	17076.8975
92.5000	16754.1875
92.5100	16191.1675
92.5200	16108.3475
92.5300	16425.3450
92.5400	16521.0425
92.5500	16427.5725
92.5600	17197.5850
92.5700	17141.5425
92.5800	16845.1175
92.5900	17180.2525
92.6000	16688.3625
92.6100	16570.2300
92.6200	17060.9550
92.6300	17021.8000
92.6400	17523.1050
92.6500	17113.3775
92.6600	16609.8900
92.6700	16804.4125
92.6800	17582.2550
92.6900	17542.1325
92.7000	17225.5750
92.7100	17848.9550
92.7200	17777.4650
92.7300	16891.3550
92.7400	16240.8825
92.7500	16174.1850
92.7600	17313.4975
92.7700	16960.7525
92.7800	16359.5375
92.7900	16807.3300
92.8000	17213.2900
92.8100	17397.6650
92.8200	16800.0000
92.8300	16812.8450
92.8400	17032.4275
92.8500	17029.2150
92.8600	17248.2275
92.8700	17219.2925
92.8800	17248.5100
92.8900	16908.1250
92.9000	16733.9725
92.9100	16479.1525
92.9200	17342.5975
92.9300	17173.2000
92.9400	16695.6925
92.9500	17574.6825
92.9600	17071.3500
92.9700	17161.2750
92.9800	17029.4850
92.9900	16616.4875
93.0000	16973.3175
93.0100	17109.3800
93.0200	16960.0550
93.0300	17203.1550
93.0400	17648.6050
93.0500	17621.4775
93.0600	17725.2100
93.0700	17502.6700
93.0800	16763.3850
93.0900	16683.3325
93.1000	16689.0550
93.1100	16828.3300
93.1200	16712.9200
93.1300	17053.0250
93.1400	17132.1450
93.1500	17096.4925
93.1600	16997.1275
93.1700	16918.3600
93.1800	16968.8825
93.1900	17006.1425
93.2000	16214.9425
93.2100	16696.5075
93.2200	17604.8575
93.2300	17238.8700
93.2400	17428.9975
93.2500	17824.1525
93.2600	17500.5825
93.2700	16956.0200
93.2800	17171.6500
93.2900	17343.3550
93.3000	17097.4025
93.3100	16983.5050
93.3200	16357.0200
93.3300	16634.1400
93.3400	16678.4575
93.3500	17173.1800
93.3600	17444.7750
93.3700	17211.5800
93.3800	16971.3175
93.3900	16423.8800
93.4000	16767.6675
93.4100	16818.6100
93.4200	16919.4925
93.4300	17055.1100
93.4400	16440.1025
93.4500	16833.1675
93.4600	17782.7850
93.4700	17734.3675
93.4800	16764.1150
93.4900	16603.6825
93.5000	16851.4150
93.5100	16954.0700
93.5200	17240.2625
93.5300	16504.3400
93.5400	16852.1675
93.5500	17031.6475
93.5600	16887.4225
93.5700	17267.5075
93.5800	17352.2200
93.5900	17585.2700
93.6000	17800.0000
93.6100	17794.8050
93.6200	17132.8525
93.6300	17068.7725
93.6400	17383.1300
93.6500	17344.3075
93.6600	16318.8075
93.6700	16753.7900
93.6800	17615.2700
93.6900	17249.3525
93.7000	17052.0525
93.7100	17815.8550
93.7200	17433.3600
93.7300	17449.9350
93.7400	17383.2325
93.7500	17150.0300
93.7600	17299.8975
93.7700	17266.7075
93.7800	16917.2975
93.7900	16733.7650
93.8000	17082.3150
93.8100	17000.2875
93.8200	17713.7875
93.8300	17865.9825
93.8400	17435.5525
93.8500	16704.1550
93.8600	16799.3775
93.8700	17296.6175
93.8800	17415.8150
93.8900	17102.4875
93.9000	16257.1375
93.9100	16712.4950
93.9200	17426.5375
93.9300	16872.3475
93.9400	16817.1950
93.9500	16866.1125
93.9600	17756.1900
93.9700	18013.6225
93.9800	17342.0200
93.9900	17596.4675
94.0000	17616.4375
94.0100	17797.3750
94.0200	17143.2300
94.0300	17264.6175
94.0400	16905.8300
94.0500	16686.8925
94.0600	16585.0300
94.0700	17598.6025
94.0800	17436.6350
94.0900	17400.6175
94.1000	17301.9050
94.1100	17234.6375
94.1200	17037.3525
94.1300	17180.2425
94.1400	17444.3650
94.1500	17710.8950
94.1600	16689.9375
94.1700	17073.8850
94.1800	17278.6950
94.1900	17511.1375
94.2000	17321.5100
94.2100	16975.3200
94.2200	16657.9900
94.2300	17348.2200
94.2400	17139.4575
94.2500	17279.3200
94.2600	17948.0450
94.2700	17658.7900
94.2800	17066.9550
94.2900	17179.5000
94.3000	17231.8700
94.3100	17411.2125
94.3200	17303.5300
94.3300	16896.1450
94.3400	16447.3925
94.3500	16756.0900
94.3600	16637.6300
94.3700	16891.2750
94.3800	16771.0950
94.3900	16943.8225
94.4000	17416.8125
94.4100	16870.2225
94.4200	16415.8175
94.4300	16930.4025
94.4400	16516.2525
94.4500	16789.0200
94.4600	16848.1450
94.4700	17234.9775
94.4800	17121.7375
94.4900	16732.0700
94.5000	17469.4650
94.5100	17788.1650
94.5200	17303.9625
94.5300	16739.5575
94.5400	17148.2775
94.5500	17502.2000
94.5600	17452.7875
94.5700	17465.9625
94.5800	17067.8050
94.5900	16874.5850
94.6000	16691.3375
94.6100	17495.8375
94.6200	17517.4100
94.6300	17532.5825
94.6400	17119.7100
94.6500	17052.2975
94.6600	17304.2950
94.6700	16855.9750
94.6800	17150.9000
94.6900	17706.2750
94.7000	17479.5200
94.7100	16895.8525
94.7200	17167.7875
94.7300	17357.5850
94.7400	17208.3300
94.7500	17469.0475
94.7600	16992.9425
94.7700	17219.6550
94.7800	17802.2925
94.7900	17027.6775
94.8000	16478.0550
94.8100	16213.2600
94.8200	17130.7550
94.8300	17309.4800
94.8400	17458.5175
94.8500	17340.6350
94.8600	17963.2125
94.8700	17480.5850
94.8800	16742.0225
94.8900	17171.7725
94.9000	17105.6875
94.9100	17021.4400
94.9200	16953.8475
94.9300	17295.3525
94.9400	17504.9575
94.9500	17767.6125
94.9600	17391.4025
94.9700	16567.4800
94.9800	16986.5725
94.9900	17079.2925
95.0000	17255.4825
95.0100	17157.1650
95.0200	17024.9075
95.0300	16563.4025
95.0400	17158.2575
95.0500	17168.7675
95.0600	17057.3975
95.0700	17689.7300
95.0800	17764.5275
95.0900	17454.8675
95.1000	16856.7450
95.1100	18280.9000
95.1200	17900.6500
95.1300	17197.4150
95.1400	17694.5125
95.1500	17189.0450
95.1600	16450.4875
95.1700	16819.5350
95.1800	16663.6175
95.1900	17503.9100
95.2000	17721.8600
95.2100	16864.6050
95.2200	16474.3575
95.2300	17442.0325
95.2400	17284.2525
95.2500	17065.3225
95.2600	17050.0000
95.2700	16817.8650
95.2800	16815.4700
95.2900	16986.7650
95.3000	17649.2100
95.3100	17669.0975
95.3200	16956.1850
95.3300	17347.7375
95.3400	17537.6650
95.3500	17025.4725
95.3600	17430.5525
95.3700	17589.9900
95.3800	16675.4325
95.3900	16985.0900
95.4000	16831.8950
95.4100	17001.3700
95.4200	17632.1075
95.4300	17560.2925
95.4400	16812.0275
95.4500	17057.3725
95.4600	17175.5100
95.4700	17290.8350
95.4800	17330.7025
95.4900	17072.4550
95.5000	17111.3600
95.5100	17162.6700
95.5200	17243.3125
95.5300	17587.1150
95.5400	17693.2550
95.5500	17654.0625
95.5600	17910.2150
95.5700	17397.7900
95.5800	17472.3650
95.5900	17070.4950
95.6000	17247.3225
95.6100	16915.2400
95.6200	16669.4975
95.6300	17199.6725
95.6400	17921.5850
95.6500	16594.8575
95.6600	16771.7200
95.6700	17150.6900
95.6800	17686.3225
95.6900	16697.2275
95.7000	16386.7575
95.7100	16671.1950
95.7200	16639.1150
95.7300	16739.8450
95.7400	16689.1575
95.7500	16744.1575
95.7600	17327.6250
95.7700	17383.3325
95.7800	17079.5225
95.7900	17141.1125
95.8000	17013.3750
95.8100	16757.1925
95.8200	17309.8125
95.8300	17336.3350
95.8400	17409.1375
95.8500	17174.1750
95.8600	17301.5075
95.8700	16816.8525
95.8800	16418.4225
95.8900	16443.8775
95.9000	16555.9200
95.9100	17156.6025
95.9200	16687.4050
95.9300	16935.6725
95.9400	17314.2500
95.9500	17440.6450
95.9600	16815.6800
95.9700	16885.8825
95.9800	17156.5900
95.9900	16866.4675
96.0000	16923.8400
96.0100	17506.3600
96.0200	17415.9150
96.0300	16842.3925
96.0400	16994.2575
96.0500	16941.3600
96.0600	16827.9350
96.0700	16485.5125
96.0800	16750.9600
96.0900	17144.3775
96.1000	16897.5900
96.1100	17077.1525
96.1200	16709.2125
96.1300	16771.8475
96.1400	16963.5925
96.1500	17178.5575
96.1600	17215.0125
96.1700	16886.4750
96.1800	17285.1275
96.1900	17333.3325
96.2000	17498.2875
96.2100	17246.8175
96.2200	17096.7675
96.2300	17397.9825
96.2400	17028.8975
96.2500	17237.9075
96.2600	17057.0750
96.2700	16659.1650
96.2800	16930.8825
96.2900	17101.2950
96.3000	17251.2575
96.3100	17789.9350
96.3200	17341.8175
96.3300	17253.4475
96.3400	17324.6925
96.3500	17661.8950
96.3600	17968.7525
96.3700	17641.7575
96.3800	17614.9225
96.3900	17467.4775
96.4000	17106.9525
96.4100	17171.0450
96.4200	17660.3725
96.4300	18074.3550
96.4400	18280.5650
96.4500	17301.9625
96.4600	17659.8875
96.4700	17359.3400
96.4800	16944.5450
96.4900	16691.6650
96.5000	17618.8250
96.5100	18521.6450
96.5200	17754.1975
96.5300	16966.1400
96.5400	17492.7125
96.5500	17536.9475
96.5600	17206.5075
96.5700	17018.1450
96.5800	16435.7525
96.5900	16515.1175
96.6000	16948.8975
96.6100	16673.5625
96.6200	16766.8450
96.6300	16798.1650
96.6400	16814.8275
96.6500	17468.9375
96.6600	17787.1350
96.6700	17742.5800
96.6800	17155.5800
96.6900	17468.4150
96.7000	17768.3950
96.7100	17148.6150
96.7200	17199.8750
96.7300	18222.9025
96.7400	17773.0200
96.7500	17566.8800
96.7600	17195.0925
96.7700	17371.7700
96.7800	17562.5950
96.7900	17465.1075
96.8000	16977.1975
96.8100	17581.4050
96.8200	17356.5225
96.8300	17611.9800
96.8400	17797.6250
96.8500	17536.2350
96.8600	17278.6525
96.8700	17559.8225
96.8800	17334.4925
96.8900	17447.4725
96.9000	17378.2000
96.9100	17145.5450
96.9200	17278.7900
96.9300	17152.6450
96.9400	17781.5650
96.9500	17159.6450
96.9600	16757.4050
96.9700	17865.1225
96.9800	17943.0625
96.9900	18168.8225
97.0000	17449.5225
97.0100	17085.1775
97.0200	17682.5125
97.0300	17707.8400
97.0400	17067.7250
97.0500	17556.6825
97.0600	17398.1575
97.0700	17307.8825
97.0800	17593.8625
97.0900	17368.9050
97.1000	17142.3925
97.1100	16676.1150
97.1200	17115.8700
97.1300	17153.9750
97.1400	17355.4800
97.1500	17632.8000
97.1600	17607.9775
97.1700	17849.3800
97.1800	17340.6600
97.1900	17120.0225
97.2000	17451.8825
97.2100	17763.8675
97.2200	17521.5200
97.2300	17629.8775
97.2400	17855.1250
97.2500	17429.2025
97.2600	17146.9625
97.2700	17687.8025
97.2800	17503.1075
97.2900	16968.9150
97.3000	17119.5600
97.3100	17632.9550
97.3200	17773.1625
97.3300	17388.3150
97.3400	17889.1975
97.3500	17644.9000
97.3600	17629.2475
97.3700	16375.9150
97.3800	16346.1900
97.3900	17389.8325
97.4000	17781.7775
97.4100	18181.9725
97.4200	17780.4225
97.4300	17585.1975
97.4400	17522.8500
97.4500	17429.0450
97.4600	17475.0725
97.4700	17366.5400
97.4800	17422.9850
97.4900	17287.3825
97.5000	17252.0725
97.5100	16987.3650
97.5200	16877.0550
97.5300	17464.7225
97.5400	17374.9825
97.5500	17802.0650
97.5600	17516.7300
97.5700	16912.6750
97.5800	17766.2450
97.5900	17929.1500
97.6000	17204.6925
97.6100	17376.8475
97.6200	17067.0100
97.6300	16667.0575
97.6400	17184.7100
97.6500	17441.4275
97.6600	16869.6475
97.6700	17016.2875
97.6800	17413.9450
97.6900	17423.0000
97.7000	17809.6275
97.7100	17924.8750
97.7200	17889.6825
97.7300	18130.6625
97.7400	17526.5975
97.7500	17316.9700
97.7600	17154.5650
97.7700	16871.5800
97.7800	16935.1150
97.7900	18432.9200
97.8000	17225.3975
97.8100	17627.1400
97.8200	17862.0000
97.8300	17607.2300
97.8400	17610.2575
97.8500	17747.4225
97.8600	17897.4100
97.8700	18003.8200
97.8800	17580.9525
97.8900	17516.6675
97.9000	17110.0875
97.9100	16977.4050
97.9200	16995.7025
97.9300	17362.9025
97.9400	17590.8425
97.9500	18240.7300
97.9600	17332.0300
97.9700	17168.8225
97.9800	16978.0525
97.9900	16993.5225
98.0000	17565.7300
98.0100	17345.4075
98.0200	17575.5575
98.0300	17761.6825
98.0400	17783.3325
98.0500	18116.8075
98.0600	17296.8125
98.0700	17355.1175
98.0800	17499.2925
98.0900	17879.0075
98.1000	17773.9175
98.1100	17054.4325
98.1200	17326.7325
98.1300	17977.3600
98.1400	17936.2825
98.1500	17496.5750
98.1600	17114.6700
98.1700	17573.5875
98.1800	17635.5175
98.1900	18125.6900
98.2000	18634.3975
98.2100	18178.7650
98.2200	18042.0900
98.2300	17077.8900
98.2400	17454.4425
98.2500	18097.8250
98.2600	17575.4675
98.2700	17859.6025
98.2800	17453.6000
98.2900	17267.5750
98.3000	17539.3725
98.3100	17742.4775
98.3200	16956.5400
98.3300	17296.2300
98.3400	17554.7050
98.3500	17829.2125
98.3600	17476.1800
98.3700	17170.8225
98.3800	18029.8825
98.3900	17993.1525
98.4000	17417.2425
98.4100	17564.6550
98.4200	17065.1050
98.4300	17344.7250
98.4400	17183.1775
98.4500	17178.9075
98.4600	17848.1700
98.4700	17632.0550
98.4800	17222.0525
98.4900	17686.8775
98.5000	17593.2725
98.5100	17104.3100
98.5200	17986.8875
98.5300	18061.0975
98.5400	17558.8325
98.5500	18003.3650
98.5600	18141.1125
98.5700	18092.2250
98.5800	18155.5475
98.5900	18397.7425
98.6000	18577.7475
98.6100	18383.3900
98.6200	18321.1200
98.6300	18504.3775
98.6400	18129.0550
98.6500	18384.2975
98.6600	18462.2075
98.6700	19260.6700
98.6800	18805.9025
98.6900	18427.9650
98.7000	18383.3325
98.7100	18484.3700
98.7200	18254.6375
98.7300	18678.5075
98.7400	19312.8450
98.7500	19832.9400
98.7600	19582.5250
98.7700	19071.5700
98.7800	19317.4500
98.7900	19467.6700
98.8000	19180.3375
98.8100	19710.4475
98.8200	19121.9175
98.8300	19276.3475
98.8400	19475.3550
98.8500	19860.6425
98.8600	19310.8075
98.8700	19231.0925
98.8800	19031.3950
98.8900	18927.8825
98.9000	19392.6350
98.9100	19827.2375
98.9200	19623.7300
98.9300	19323.7400
98.9400	19615.0275
98.9500	19911.8250
98.9600	19834.6350
98.9700	19052.3950
98.9800	19019.8525
98.9900	19364.9800
99.0000	19012.9325
99.0100	18820.2325
99.0200	19045.1100
99.0300	18549.8700
99.0400	18466.6675
99.0500	18740.5950
99.0600	19316.7600
99.0700	19097.2525
99.0800	18848.1725
99.0900	18903.1625
99.1000	18570.6900
99.1100	18213.9425
99.1200	18080.1750
99.1300	18354.9625
99.1400	18731.5350
99.1500	18840.9900
99.1600	18633.7900
99.1700	18571.1725
99.1800	18552.2525
99.1900	18910.3325
99.2000	19572.0175
99.2100	18801.8925
99.2200	18781.9675
99.2300	18800.0000
99.2400	19275.6075
99.2500	18773.5150
99.2600	18438.3300
99.2700	18601.7650
99.2800	18849.5075
99.2900	18422.1650
99.3000	17744.7225
99.3100	18226.4475
99.3200	18186.9675
99.3300	17446.1175
99.3400	17967.4100
99.3500	18398.1150
99.3600	18478.8225
99.3700	18382.4600
99.3800	17804.6575
99.3900	17961.6425
99.4000	17870.3075
99.4100	18239.0775
99.4200	18458.5125
99.4300	17344.9325
99.4400	17440.4575
99.4500	18189.4275
99.4600	18588.2000
99.4700	17999.2925
99.4800	17049.8100
99.4900	17752.4475
99.5000	18128.3025
99.5100	17532.6275
99.5200	18153.8350
99.5300	17935.2350
99.5400	17206.0600
99.5500	17734.0425
99.5600	17328.9800
99.5700	17062.6675
99.5800	17335.9475
99.5900	17714.7700
99.6000	17896.3600
99.6100	18089.5925
99.6200	17713.1725
99.6300	18154.3700
99.6400	17411.9250
99.6500	17542.7275
99.6600	18130.9450
99.6700	18130.2000
99.6800	17871.6775
99.6900	17645.9875
99.7000	17818.4250
99.7100	17792.3550
99.7200	17639.2175
99.7300	17400.4900
99.7400	17597.2575
99.7500	17921.5750
99.7600	16986.6375
99.7700	16804.5075
99.7800	17189.1375
99.7900	18013.8725
99.8000	17974.7925
99.8100	17445.5425
99.8200	17597.2800
99.8300	17474.7850
99.8400	17017.5900
99.8500	17137.3800
99.8600	16806.3150
99.8700	17168.0150
99.8800	17363.0650
99.8900	17311.2600
99.9000	17184.6800
99.9100	17541.4625
99.9200	17772.9850
99.9300	17800.0000
99.9400	17771.1675
99.9500	17752.2500
99.9600	17519.3350
99.9700	17483.3325
99.9800	17483.3325
99.9900	17483.3325
100.0000	17483.3325
