ｻﾝﾌﾟﾙ:	Au190-1100_600_1_05_R
ﾌｧｲﾙ名:	Au190-1100_600_1_05_R.UDS
分析日時:	'14:08:09, 09/20/2024
ｵﾍﾟﾚｰﾀ:	OB
ｺﾒﾝﾄ:	'

光度計
ﾓﾃﾞﾙ:	U-3900形分光光度計
ｼﾘｱﾙ No.:	'3004-010
ROM Ver.:	2J25300 07

装置条件
測定ﾓｰﾄﾞ:	波長ｽｷｬﾝ
ﾃﾞｰﾀﾓｰﾄﾞ:	%T
開始波長:	1100.00 nm
終了波長:	190.00 nm
ｽｷｬﾝｽﾋﾟｰﾄﾞ:	600 nm/min
ｻﾝﾌﾟﾘﾝｸﾞ間隔:	0.50 nm
初期待ち時間:	0 s
繰り返し周期:	0.0 min
測定回数:	1
測定前ｵｰﾄｾﾞﾛ:	Off
ｽﾘｯﾄ:	1 nm
ﾎﾄﾏﾙ電圧:	自動制御
光源切換ﾓｰﾄﾞ:	自動切換
光源切換波長:	340.00 nm
ﾍﾞｰｽﾗｲﾝ設定:	ﾕｰｻﾞ 1
高分解能測定:	Off
D2ﾗﾝﾌﾟ:	On
WIﾗﾝﾌﾟ:	On
R/S反転:	Off
ｾﾙ長:	10.0 mm

ﾋﾟｰｸ検出
検出方法:	Rectangular
感度:	1
しきい値:	0.0100

ﾋﾟｰｸ
ﾋﾟｰｸ No.	開始 (nm)	ﾋﾟｰｸ (nm)	終了 (nm)	高さ (%T)	ﾊﾞﾚｰ (nm)	ﾊﾞﾚｰ (%T)
1	1093.00	1090.50	1081.50	35.219	1081.50	278.674
2	1081.50	1078.50	1071.50	48.540	1071.50	104.038
3	1071.50	1068.50	1066.00	76.381	1066.00	96.754
4	1066.00	1058.50	1055.00	77.374	1055.00	88.935
5	1055.00	1054.00	1052.50	82.769	1052.50	89.590
6	1052.50	1047.00	1046.00	78.893	1046.00	82.550
7	1046.00	1044.00	1041.50	78.218	1041.50	86.968
8	1041.50	1036.00	1033.50	76.635	1033.50	79.728
9	1033.50	1032.00	1025.00	77.296	1025.00	89.987
10	1025.00	1019.00	1016.00	81.730	1016.00	83.896
11	1016.00	1012.50	1008.50	80.346	1008.50	83.767
12	1008.50	1004.00	1001.50	81.855	1001.50	82.859
13	1001.50	1000.50	997.00	81.954	997.00	84.168
14	997.00	991.50	989.00	81.921	989.00	84.064
15	989.00	986.50	984.00	82.905	984.00	83.601
16	984.00	978.50	976.00	82.392	976.00	83.322
17	976.00	974.50	970.50	82.706	970.50	83.553
18	970.50	965.00	960.00	82.503	960.00	84.044
19	960.00	957.50	954.00	82.809	954.00	84.255
20	954.00	950.00	948.00	83.451	948.00	84.389
21	948.00	945.00	940.00	83.048	940.00	84.753
22	940.00	935.00	930.00	83.810	930.00	84.727
23	930.00	928.00	923.00	83.942	923.00	85.493
24	923.00	915.50	912.00	83.955	912.00	85.465
25	912.00	908.50	906.00	84.496	906.00	86.110
26	906.00	904.00	900.00	84.172	900.00	85.097
27	900.00	897.00	891.50	84.664	891.50	86.377
28	891.50	889.00	884.50	85.364	884.50	87.550
29	884.50	881.50	877.50	85.763	877.50	87.317
30	877.50	875.00	872.50	85.826	872.50	87.083
31	872.50	868.00	861.50	86.155	861.50	88.399
32	861.50	858.50	849.00	86.603	849.00	88.219
33	849.00	846.50	841.00	87.192	841.00	88.332
34	841.00	839.00	832.00	87.456	832.00	89.244
35	832.00	830.50	827.50	88.398	827.50	89.395
36	827.50	825.50	815.00	88.603	815.00	90.514
37	815.00	812.50	809.50	89.625	809.50	90.315
38	809.50	808.50	803.50	89.663	803.50	90.736
39	803.50	798.00	791.00	89.512	791.00	90.944
40	791.00	787.50	784.00	89.587	784.00	90.707
41	784.00	783.00	779.00	90.478	779.00	91.336
42	779.00	776.50	774.00	90.725	774.00	91.007
43	774.00	770.50	768.50	90.600	768.50	90.988
44	768.50	766.50	758.00	90.521	758.00	91.282
45	758.00	755.00	745.00	90.706	745.00	92.595
46	745.00	737.00	733.50	91.257	733.50	91.395
47	733.50	731.50	730.00	91.171	730.00	91.527
48	730.00	727.50	726.00	91.114	726.00	91.338
49	726.00	722.00	720.00	91.044	720.00	91.214
50	720.00	717.50	713.00	90.963	713.00	91.206
51	713.00	708.50	706.50	90.905	706.50	91.159
52	706.50	703.00	700.00	90.631	700.00	91.020
53	700.00	694.00	691.50	90.639	691.50	90.800
54	691.50	681.50	679.50	90.132	679.50	90.282
55	679.50	677.50	674.00	90.032	674.00	90.161
56	674.00	672.00	670.00	89.946	670.00	90.101
57	670.00	663.50	660.50	89.544	660.50	89.626
58	660.50	471.00	468.50	32.217	468.50	32.304
59	468.50	466.00	450.00	32.206	450.00	32.671
60	450.00	446.00	443.00	32.561	443.00	32.823
61	443.00	441.00	438.50	32.758	438.50	32.852
62	438.50	437.50	431.50	32.809	431.50	32.974
63	431.50	428.00	417.00	32.890	417.00	32.993
64	417.00	411.50	409.00	32.769	409.00	32.925
65	409.00	397.50	394.00	32.510	394.00	32.560
66	394.00	352.00	300.50	29.994	300.50	34.614
67	300.50	299.00	279.00	34.530	279.00	35.107
68	279.00	230.50	229.00	30.249	229.00	30.305

ﾃﾞｰﾀﾘｽﾄ
nm	%T
1100.00	104.911
1099.50	136.628
1099.00	180.977
1098.50	232.533
1098.00	238.853
1097.50	186.853
1097.00	180.982
1096.50	138.458
1096.00	121.664
1095.50	149.901
1095.00	196.230
1094.50	251.576
1094.00	282.352
1093.50	281.289
1093.00	286.218
1092.50	231.133
1092.00	181.928
1091.50	126.017
1091.00	83.839
1090.50	35.219
1090.00	58.610
1089.50	72.041
1089.00	90.740
1088.50	61.186
1088.00	67.319
1087.50	81.629
1087.00	97.840
1086.50	94.342
1086.00	111.679
1085.50	134.411
1085.00	197.724
1084.50	95.221
1084.00	79.310
1083.50	98.925
1083.00	114.206
1082.50	170.055
1082.00	257.190
1081.50	278.674
1081.00	272.716
1080.50	251.402
1080.00	195.836
1079.50	120.878
1079.00	65.652
1078.50	48.540
1078.00	111.745
1077.50	63.000
1077.00	68.375
1076.50	81.781
1076.00	73.980
1075.50	70.721
1075.00	82.130
1074.50	79.681
1074.00	74.613
1073.50	85.102
1073.00	88.410
1072.50	85.770
1072.00	98.960
1071.50	104.038
1071.00	103.965
1070.50	102.973
1070.00	93.216
1069.50	88.643
1069.00	84.333
1068.50	76.381
1068.00	79.567
1067.50	77.195
1067.00	78.930
1066.50	93.472
1066.00	96.754
1065.50	86.875
1065.00	89.544
1064.50	92.602
1064.00	90.886
1063.50	87.132
1063.00	81.269
1062.50	80.313
1062.00	86.813
1061.50	84.487
1061.00	83.349
1060.50	80.839
1060.00	78.597
1059.50	82.065
1059.00	81.352
1058.50	77.374
1058.00	79.512
1057.50	83.840
1057.00	87.379
1056.50	87.273
1056.00	88.298
1055.50	87.940
1055.00	88.935
1054.50	87.102
1054.00	82.769
1053.50	85.099
1053.00	87.698
1052.50	89.590
1052.00	87.327
1051.50	84.756
1051.00	85.136
1050.50	88.728
1050.00	88.623
1049.50	84.372
1049.00	81.806
1048.50	79.344
1048.00	80.796
1047.50	81.222
1047.00	78.893
1046.50	81.594
1046.00	82.550
1045.50	82.223
1045.00	81.348
1044.50	78.589
1044.00	78.218
1043.50	80.874
1043.00	83.206
1042.50	84.427
1042.00	86.784
1041.50	86.968
1041.00	84.237
1040.50	82.387
1040.00	79.950
1039.50	80.805
1039.00	81.467
1038.50	82.098
1038.00	82.424
1037.50	80.744
1037.00	78.428
1036.50	77.180
1036.00	76.635
1035.50	76.947
1035.00	77.685
1034.50	79.226
1034.00	79.437
1033.50	79.728
1033.00	78.718
1032.50	78.217
1032.00	77.296
1031.50	77.486
1031.00	78.566
1030.50	80.365
1030.00	81.487
1029.50	82.976
1029.00	84.761
1028.50	86.202
1028.00	86.515
1027.50	86.401
1027.00	86.692
1026.50	86.821
1026.00	87.466
1025.50	89.064
1025.00	89.987
1024.50	89.456
1024.00	88.813
1023.50	88.161
1023.00	87.148
1022.50	85.517
1022.00	84.505
1021.50	84.515
1021.00	83.421
1020.50	82.735
1020.00	82.456
1019.50	81.809
1019.00	81.730
1018.50	82.756
1018.00	83.514
1017.50	83.450
1017.00	83.696
1016.50	83.860
1016.00	83.896
1015.50	83.329
1015.00	82.707
1014.50	82.541
1014.00	81.997
1013.50	81.308
1013.00	80.848
1012.50	80.346
1012.00	80.868
1011.50	81.401
1011.00	82.055
1010.50	82.654
1010.00	82.804
1009.50	83.432
1009.00	83.430
1008.50	83.767
1008.00	83.349
1007.50	83.100
1007.00	83.337
1006.50	82.880
1006.00	82.375
1005.50	82.204
1005.00	82.262
1004.50	81.951
1004.00	81.855
1003.50	82.147
1003.00	82.214
1002.50	82.666
1002.00	82.843
1001.50	82.859
1001.00	82.348
1000.50	81.954
1000.00	82.205
999.50	82.509
999.00	82.605
998.50	82.850
998.00	83.278
997.50	83.799
997.00	84.168
996.50	84.096
996.00	83.969
995.50	83.671
995.00	83.419
994.50	83.591
994.00	83.468
993.50	82.852
993.00	82.662
992.50	82.056
992.00	82.028
991.50	81.921
991.00	82.049
990.50	82.397
990.00	83.123
989.50	83.590
989.00	84.064
988.50	83.738
988.00	83.185
987.50	83.029
987.00	83.000
986.50	82.905
986.00	83.215
985.50	82.991
985.00	83.390
984.50	83.412
984.00	83.601
983.50	83.338
983.00	83.214
982.50	83.121
982.00	83.059
981.50	82.979
981.00	82.885
980.50	82.755
980.00	82.998
979.50	82.763
979.00	82.493
978.50	82.392
978.00	82.678
977.50	82.876
977.00	83.042
976.50	83.230
976.00	83.322
975.50	83.213
975.00	82.943
974.50	82.706
974.00	82.733
973.50	83.067
973.00	83.470
972.50	83.350
972.00	83.245
971.50	83.066
971.00	83.158
970.50	83.553
970.00	83.179
969.50	83.285
969.00	83.105
968.50	83.287
968.00	83.400
967.50	83.088
967.00	83.007
966.50	82.700
966.00	82.578
965.50	82.637
965.00	82.503
964.50	82.572
964.00	82.809
963.50	83.150
963.00	83.245
962.50	83.705
962.00	83.517
961.50	83.888
961.00	83.891
960.50	83.672
960.00	84.044
959.50	84.023
959.00	83.854
958.50	83.430
958.00	82.858
957.50	82.809
957.00	83.100
956.50	83.333
956.00	83.450
955.50	83.851
955.00	83.969
954.50	84.176
954.00	84.255
953.50	83.997
953.00	83.831
952.50	84.007
952.00	83.986
951.50	83.862
951.00	83.604
950.50	83.474
950.00	83.451
949.50	83.664
949.00	83.784
948.50	83.962
948.00	84.389
947.50	84.225
947.00	83.965
946.50	83.564
946.00	83.177
945.50	83.182
945.00	83.048
944.50	83.355
944.00	83.657
943.50	83.583
943.00	83.359
942.50	83.448
942.00	83.637
941.50	83.814
941.00	84.306
940.50	84.615
940.00	84.753
939.50	84.531
939.00	84.464
938.50	84.184
938.00	83.704
937.50	83.757
937.00	84.398
936.50	84.280
936.00	84.148
935.50	84.006
935.00	83.810
934.50	84.194
934.00	84.110
933.50	84.155
933.00	84.167
932.50	84.002
932.00	84.390
931.50	84.601
931.00	84.679
930.50	84.603
930.00	84.727
929.50	84.414
929.00	84.227
928.50	83.973
928.00	83.942
927.50	84.242
927.00	84.165
926.50	84.121
926.00	83.962
925.50	84.142
925.00	83.952
924.50	84.272
924.00	84.952
923.50	85.362
923.00	85.493
922.50	85.265
922.00	85.244
921.50	85.084
921.00	84.925
920.50	84.925
920.00	85.267
919.50	85.234
919.00	84.962
918.50	85.064
918.00	84.343
917.50	84.218
917.00	84.118
916.50	84.235
916.00	84.112
915.50	83.955
915.00	84.563
914.50	84.886
914.00	85.066
913.50	84.919
913.00	85.329
912.50	85.319
912.00	85.465
911.50	84.884
911.00	84.624
910.50	84.840
910.00	85.096
909.50	85.119
909.00	85.079
908.50	84.496
908.00	84.727
907.50	85.213
907.00	85.781
906.50	85.766
906.00	86.110
905.50	86.033
905.00	85.911
904.50	84.873
904.00	84.172
903.50	84.303
903.00	84.292
902.50	84.490
902.00	85.094
901.50	84.899
901.00	84.958
900.50	84.998
900.00	85.097
899.50	85.029
899.00	84.827
898.50	84.873
898.00	84.945
897.50	84.977
897.00	84.664
896.50	85.026
896.00	84.759
895.50	85.046
895.00	85.220
894.50	84.911
894.00	85.047
893.50	85.268
893.00	85.893
892.50	86.209
892.00	86.260
891.50	86.377
891.00	85.935
890.50	86.071
890.00	86.224
889.50	85.836
889.00	85.364
888.50	85.424
888.00	85.945
887.50	85.971
887.00	85.800
886.50	85.934
886.00	86.202
885.50	86.489
885.00	86.806
884.50	87.550
884.00	87.093
883.50	86.991
883.00	87.058
882.50	86.689
882.00	86.231
881.50	85.763
881.00	85.848
880.50	86.008
880.00	86.344
879.50	86.572
879.00	86.687
878.50	86.958
878.00	86.988
877.50	87.317
877.00	87.099
876.50	86.890
876.00	86.568
875.50	85.996
875.00	85.826
874.50	86.148
874.00	86.292
873.50	86.564
873.00	86.938
872.50	87.083
872.00	86.968
871.50	86.665
871.00	86.402
870.50	86.461
870.00	86.389
869.50	86.468
869.00	86.728
868.50	86.230
868.00	86.155
867.50	86.374
867.00	86.640
866.50	86.918
866.00	87.144
865.50	86.892
865.00	87.217
864.50	87.083
864.00	86.795
863.50	87.042
863.00	87.378
862.50	87.686
862.00	88.379
861.50	88.399
861.00	88.220
860.50	87.483
860.00	87.182
859.50	86.952
859.00	87.099
858.50	86.603
858.00	86.755
857.50	86.933
857.00	86.898
856.50	87.078
856.00	87.348
855.50	87.197
855.00	87.446
854.50	87.808
854.00	87.721
853.50	87.440
853.00	87.509
852.50	87.321
852.00	87.521
851.50	87.732
851.00	87.761
850.50	87.646
850.00	87.940
849.50	88.046
849.00	88.219
848.50	88.096
848.00	88.116
847.50	88.107
847.00	87.524
846.50	87.192
846.00	87.414
845.50	87.514
845.00	87.623
844.50	87.762
844.00	87.816
843.50	87.631
843.00	87.490
842.50	87.360
842.00	87.593
841.50	87.958
841.00	88.332
840.50	88.280
840.00	87.846
839.50	87.462
839.00	87.456
838.50	87.511
838.00	87.670
837.50	88.092
837.00	88.319
836.50	88.733
836.00	88.411
835.50	87.930
835.00	87.941
834.50	88.335
834.00	88.599
833.50	88.864
833.00	89.062
832.50	89.039
832.00	89.244
831.50	88.913
831.00	88.538
830.50	88.398
830.00	88.555
829.50	88.880
829.00	89.246
828.50	89.099
828.00	89.238
827.50	89.395
827.00	89.044
826.50	88.982
826.00	88.820
825.50	88.603
825.00	88.934
824.50	88.969
824.00	89.257
823.50	89.118
823.00	89.241
822.50	88.968
822.00	89.045
821.50	88.728
821.00	88.838
820.50	89.204
820.00	89.185
819.50	89.585
819.00	89.725
818.50	89.674
818.00	89.671
817.50	89.539
817.00	89.678
816.50	89.658
816.00	89.908
815.50	90.143
815.00	90.514
814.50	90.300
814.00	90.173
813.50	89.826
813.00	89.646
812.50	89.625
812.00	89.801
811.50	89.942
811.00	89.969
810.50	90.175
810.00	90.248
809.50	90.315
809.00	89.936
808.50	89.663
808.00	89.808
807.50	89.862
807.00	89.942
806.50	89.794
806.00	89.938
805.50	90.047
805.00	90.406
804.50	90.711
804.00	90.700
803.50	90.736
803.00	90.596
802.50	90.612
802.00	90.409
801.50	90.272
801.00	90.305
800.50	90.343
800.00	90.208
799.50	90.199
799.00	89.821
798.50	89.550
798.00	89.512
797.50	89.624
797.00	89.888
796.50	90.311
796.00	90.438
795.50	90.571
795.00	90.492
794.50	90.443
794.00	90.383
793.50	90.525
793.00	90.588
792.50	90.742
792.00	90.784
791.50	90.852
791.00	90.944
790.50	90.706
790.00	90.501
789.50	90.411
789.00	90.026
788.50	89.898
788.00	89.725
787.50	89.587
787.00	89.863
786.50	90.180
786.00	90.570
785.50	90.681
785.00	90.688
784.50	90.615
784.00	90.707
783.50	90.508
783.00	90.478
782.50	90.479
782.00	90.600
781.50	90.725
781.00	90.948
780.50	90.909
780.00	91.080
779.50	91.144
779.00	91.336
778.50	91.201
778.00	90.996
777.50	90.769
777.00	90.797
776.50	90.725
776.00	90.841
775.50	90.806
775.00	90.887
774.50	90.908
774.00	91.007
773.50	90.980
773.00	90.914
772.50	90.856
772.00	90.762
771.50	90.655
771.00	90.602
770.50	90.600
770.00	90.797
769.50	90.854
769.00	90.948
768.50	90.988
768.00	90.870
767.50	90.778
767.00	90.702
766.50	90.521
766.00	90.588
765.50	90.750
765.00	90.857
764.50	90.772
764.00	90.707
763.50	90.646
763.00	90.672
762.50	90.665
762.00	90.675
761.50	90.773
761.00	90.777
760.50	90.840
760.00	90.923
759.50	90.881
759.00	91.013
758.50	91.157
758.00	91.282
757.50	91.209
757.00	91.143
756.50	90.998
756.00	90.926
755.50	90.811
755.00	90.706
754.50	90.779
754.00	90.788
753.50	90.860
753.00	90.852
752.50	90.803
752.00	90.790
751.50	90.820
751.00	90.805
750.50	90.968
750.00	91.098
749.50	91.257
749.00	91.526
748.50	91.667
748.00	91.860
747.50	92.054
747.00	92.127
746.50	92.189
746.00	92.328
745.50	92.452
745.00	92.595
744.50	92.573
744.00	92.509
743.50	92.591
743.00	92.588
742.50	92.519
742.00	92.465
741.50	92.339
741.00	92.213
740.50	92.025
740.00	91.831
739.50	91.530
739.00	91.406
738.50	91.278
738.00	91.301
737.50	91.275
737.00	91.257
736.50	91.265
736.00	91.310
735.50	91.294
735.00	91.318
734.50	91.282
734.00	91.380
733.50	91.395
733.00	91.378
732.50	91.244
732.00	91.206
731.50	91.171
731.00	91.264
730.50	91.378
730.00	91.527
729.50	91.506
729.00	91.474
728.50	91.383
728.00	91.289
727.50	91.114
727.00	91.169
726.50	91.280
726.00	91.338
725.50	91.313
725.00	91.322
724.50	91.258
724.00	91.212
723.50	91.123
723.00	91.095
722.50	91.059
722.00	91.044
721.50	91.120
721.00	91.183
720.50	91.178
720.00	91.214
719.50	91.194
719.00	91.207
718.50	91.104
718.00	91.038
717.50	90.963
717.00	91.000
716.50	90.973
716.00	90.981
715.50	91.041
715.00	91.045
714.50	91.065
714.00	91.150
713.50	91.192
713.00	91.206
712.50	91.088
712.00	91.094
711.50	91.071
711.00	91.035
710.50	90.988
710.00	91.000
709.50	90.964
709.00	90.906
708.50	90.905
708.00	90.954
707.50	91.028
707.00	91.130
706.50	91.159
706.00	91.146
705.50	91.037
705.00	90.977
704.50	90.887
704.00	90.747
703.50	90.653
703.00	90.631
702.50	90.756
702.00	90.812
701.50	90.872
701.00	90.893
700.50	90.990
700.00	91.020
699.50	90.908
699.00	90.857
698.50	90.758
698.00	90.714
697.50	90.756
697.00	90.741
696.50	90.771
696.00	90.772
695.50	90.756
695.00	90.717
694.50	90.672
694.00	90.639
693.50	90.676
693.00	90.782
692.50	90.778
692.00	90.793
691.50	90.800
691.00	90.744
690.50	90.678
690.00	90.567
689.50	90.526
689.00	90.568
688.50	90.552
688.00	90.573
687.50	90.539
687.00	90.453
686.50	90.391
686.00	90.352
685.50	90.340
685.00	90.305
684.50	90.338
684.00	90.355
683.50	90.293
683.00	90.246
682.50	90.170
682.00	90.135
681.50	90.132
681.00	90.207
680.50	90.250
680.00	90.244
679.50	90.282
679.00	90.220
678.50	90.173
678.00	90.090
677.50	90.032
677.00	90.048
676.50	90.055
676.00	90.110
675.50	90.134
675.00	90.148
674.50	90.141
674.00	90.161
673.50	90.083
673.00	90.018
672.50	89.955
672.00	89.946
671.50	89.998
671.00	90.026
670.50	90.065
670.00	90.101
669.50	90.095
669.00	90.069
668.50	89.966
668.00	89.886
667.50	89.809
667.00	89.790
666.50	89.750
666.00	89.802
665.50	89.766
665.00	89.719
664.50	89.628
664.00	89.553
663.50	89.544
663.00	89.550
662.50	89.560
662.00	89.577
661.50	89.572
661.00	89.574
660.50	89.626
660.00	89.558
659.50	89.497
659.00	89.524
658.50	89.577
658.00	89.611
657.50	89.557
657.00	89.512
656.50	89.446
656.00	89.418
655.50	89.411
655.00	89.329
654.50	89.220
654.00	89.188
653.50	89.295
653.00	89.264
652.50	89.240
652.00	89.193
651.50	89.137
651.00	89.128
650.50	89.045
650.00	88.964
649.50	88.877
649.00	88.881
648.50	88.892
648.00	88.922
647.50	88.910
647.00	88.852
646.50	88.830
646.00	88.805
645.50	88.758
645.00	88.733
644.50	88.678
644.00	88.713
643.50	88.723
643.00	88.702
642.50	88.683
642.00	88.690
641.50	88.627
641.00	88.627
640.50	88.639
640.00	88.575
639.50	88.524
639.00	88.529
638.50	88.440
638.00	88.366
637.50	88.297
637.00	88.262
636.50	88.224
636.00	88.166
635.50	88.119
635.00	88.085
634.50	88.071
634.00	88.032
633.50	87.940
633.00	87.914
632.50	87.868
632.00	87.889
631.50	87.887
631.00	87.821
630.50	87.759
630.00	87.748
629.50	87.742
629.00	87.736
628.50	87.775
628.00	87.769
627.50	87.791
627.00	87.692
626.50	87.543
626.00	87.481
625.50	87.411
625.00	87.397
624.50	87.431
624.00	87.438
623.50	87.400
623.00	87.399
622.50	87.350
622.00	87.287
621.50	87.293
621.00	87.230
620.50	87.194
620.00	87.116
619.50	87.073
619.00	87.018
618.50	86.987
618.00	86.976
617.50	86.961
617.00	86.925
616.50	86.891
616.00	86.836
615.50	86.733
615.00	86.633
614.50	86.593
614.00	86.549
613.50	86.514
613.00	86.444
612.50	86.423
612.00	86.381
611.50	86.365
611.00	86.312
610.50	86.257
610.00	86.152
609.50	86.120
609.00	86.078
608.50	86.054
608.00	86.025
607.50	85.982
607.00	85.966
606.50	85.952
606.00	85.921
605.50	85.840
605.00	85.774
604.50	85.662
604.00	85.521
603.50	85.490
603.00	85.438
602.50	85.421
602.00	85.397
601.50	85.316
601.00	85.248
600.50	85.168
600.00	85.056
599.50	84.883
599.00	84.824
598.50	84.734
598.00	84.709
597.50	84.720
597.00	84.647
596.50	84.728
596.00	84.676
595.50	84.615
595.00	84.535
594.50	84.398
594.00	84.282
593.50	84.184
593.00	84.062
592.50	84.009
592.00	84.081
591.50	84.140
591.00	84.143
590.50	84.099
590.00	84.028
589.50	83.997
589.00	83.888
588.50	83.777
588.00	83.690
587.50	83.653
587.00	83.652
586.50	83.602
586.00	83.509
585.50	83.407
585.00	83.344
584.50	83.283
584.00	83.161
583.50	82.966
583.00	82.839
582.50	82.713
582.00	82.591
581.50	82.462
581.00	82.398
580.50	82.330
580.00	82.255
579.50	82.182
579.00	82.120
578.50	81.969
578.00	81.876
577.50	81.756
577.00	81.715
576.50	81.601
576.00	81.469
575.50	81.361
575.00	81.246
574.50	81.124
574.00	81.008
573.50	80.854
573.00	80.690
572.50	80.574
572.00	80.496
571.50	80.441
571.00	80.364
570.50	80.246
570.00	80.193
569.50	80.100
569.00	80.017
568.50	79.883
568.00	79.824
567.50	79.752
567.00	79.612
566.50	79.460
566.00	79.293
565.50	79.100
565.00	78.945
564.50	78.841
564.00	78.745
563.50	78.672
563.00	78.541
562.50	78.396
562.00	78.226
561.50	77.951
561.00	77.778
560.50	77.637
560.00	77.514
559.50	77.404
559.00	77.280
558.50	77.164
558.00	77.067
557.50	76.944
557.00	76.830
556.50	76.680
556.00	76.511
555.50	76.329
555.00	76.173
554.50	75.953
554.00	75.772
553.50	75.609
553.00	75.510
552.50	75.391
552.00	75.254
551.50	75.098
551.00	74.932
550.50	74.757
550.00	74.546
549.50	74.348
549.00	74.182
548.50	73.994
548.00	73.799
547.50	73.616
547.00	73.398
546.50	73.216
546.00	73.009
545.50	72.783
545.00	72.582
544.50	72.369
544.00	72.187
543.50	72.016
543.00	71.758
542.50	71.525
542.00	71.309
541.50	71.078
541.00	70.846
540.50	70.642
540.00	70.426
539.50	70.265
539.00	70.095
538.50	69.909
538.00	69.661
537.50	69.434
537.00	69.198
536.50	68.947
536.00	68.657
535.50	68.377
535.00	68.114
534.50	67.825
534.00	67.555
533.50	67.285
533.00	67.027
532.50	66.745
532.00	66.446
531.50	66.159
531.00	65.825
530.50	65.578
530.00	65.293
529.50	65.071
529.00	64.870
528.50	64.645
528.00	64.392
527.50	64.090
527.00	63.751
526.50	63.396
526.00	63.051
525.50	62.751
525.00	62.462
524.50	62.176
524.00	61.826
523.50	61.488
523.00	61.085
522.50	60.744
522.00	60.378
521.50	60.045
521.00	59.729
520.50	59.440
520.00	59.167
519.50	58.836
519.00	58.443
518.50	58.020
518.00	57.616
517.50	57.261
517.00	56.919
516.50	56.515
516.00	56.113
515.50	55.722
515.00	55.260
514.50	54.790
514.00	54.276
513.50	53.811
513.00	53.409
512.50	53.003
512.00	52.603
511.50	52.163
511.00	51.693
510.50	51.214
510.00	50.752
509.50	50.298
509.00	49.921
508.50	49.532
508.00	49.116
507.50	48.652
507.00	48.115
506.50	47.573
506.00	47.019
505.50	46.541
505.00	46.110
504.50	45.695
504.00	45.296
503.50	44.864
503.00	44.371
502.50	43.850
502.00	43.348
501.50	42.947
501.00	42.592
500.50	42.267
500.00	41.958
499.50	41.607
499.00	41.147
498.50	40.721
498.00	40.271
497.50	39.891
497.00	39.527
496.50	39.205
496.00	38.922
495.50	38.622
495.00	38.231
494.50	37.869
494.00	37.514
493.50	37.190
493.00	36.896
492.50	36.633
492.00	36.365
491.50	36.126
491.00	35.873
490.50	35.659
490.00	35.461
489.50	35.294
489.00	35.133
488.50	34.971
488.00	34.766
487.50	34.563
487.00	34.386
486.50	34.202
486.00	34.052
485.50	33.922
485.00	33.807
484.50	33.702
484.00	33.611
483.50	33.491
483.00	33.373
482.50	33.281
482.00	33.209
481.50	33.134
481.00	33.032
480.50	32.956
480.00	32.882
479.50	32.792
479.00	32.715
478.50	32.645
478.00	32.588
477.50	32.533
477.00	32.503
476.50	32.479
476.00	32.445
475.50	32.426
475.00	32.408
474.50	32.391
474.00	32.361
473.50	32.343
473.00	32.316
472.50	32.284
472.00	32.254
471.50	32.228
471.00	32.217
470.50	32.235
470.00	32.262
469.50	32.293
469.00	32.295
468.50	32.304
468.00	32.297
467.50	32.284
467.00	32.270
466.50	32.234
466.00	32.206
465.50	32.210
465.00	32.222
464.50	32.222
464.00	32.225
463.50	32.265
463.00	32.298
462.50	32.324
462.00	32.329
461.50	32.349
461.00	32.345
460.50	32.348
460.00	32.371
459.50	32.381
459.00	32.383
458.50	32.415
458.00	32.432
457.50	32.431
457.00	32.450
456.50	32.480
456.00	32.503
455.50	32.510
455.00	32.522
454.50	32.532
454.00	32.528
453.50	32.519
453.00	32.524
452.50	32.558
452.00	32.600
451.50	32.628
451.00	32.646
450.50	32.655
450.00	32.671
449.50	32.653
449.00	32.651
448.50	32.633
448.00	32.627
447.50	32.613
447.00	32.614
446.50	32.586
446.00	32.561
445.50	32.586
445.00	32.633
444.50	32.701
444.00	32.761
443.50	32.804
443.00	32.823
442.50	32.798
442.00	32.781
441.50	32.780
441.00	32.758
440.50	32.767
440.00	32.818
439.50	32.837
439.00	32.846
438.50	32.852
438.00	32.814
437.50	32.809
437.00	32.822
436.50	32.827
436.00	32.842
435.50	32.851
435.00	32.838
434.50	32.868
434.00	32.855
433.50	32.855
433.00	32.871
432.50	32.894
432.00	32.935
431.50	32.974
431.00	32.956
430.50	32.962
430.00	32.959
429.50	32.943
429.00	32.929
428.50	32.904
428.00	32.890
427.50	32.894
427.00	32.900
426.50	32.908
426.00	32.910
425.50	32.917
425.00	32.924
424.50	32.927
424.00	32.910
423.50	32.902
423.00	32.893
422.50	32.921
422.00	32.956
421.50	32.982
421.00	32.993
420.50	32.991
420.00	32.982
419.50	32.981
419.00	32.988
418.50	32.987
418.00	32.991
417.50	32.979
417.00	32.993
416.50	32.992
416.00	32.961
415.50	32.953
415.00	32.955
414.50	32.964
414.00	32.923
413.50	32.890
413.00	32.849
412.50	32.801
412.00	32.787
411.50	32.769
411.00	32.791
410.50	32.818
410.00	32.869
409.50	32.925
409.00	32.925
408.50	32.908
408.00	32.873
407.50	32.830
407.00	32.774
406.50	32.749
406.00	32.754
405.50	32.757
405.00	32.779
404.50	32.752
404.00	32.753
403.50	32.703
403.00	32.684
402.50	32.685
402.00	32.690
401.50	32.697
401.00	32.707
400.50	32.691
400.00	32.673
399.50	32.658
399.00	32.619
398.50	32.594
398.00	32.547
397.50	32.510
397.00	32.541
396.50	32.516
396.00	32.511
395.50	32.527
395.00	32.547
394.50	32.552
394.00	32.560
393.50	32.512
393.00	32.481
392.50	32.444
392.00	32.398
391.50	32.386
391.00	32.329
390.50	32.314
390.00	32.364
389.50	32.356
389.00	32.335
388.50	32.319
388.00	32.300
387.50	32.262
387.00	32.226
386.50	32.174
386.00	32.161
385.50	32.142
385.00	32.121
384.50	32.109
384.00	32.072
383.50	32.052
383.00	32.051
382.50	32.010
382.00	31.971
381.50	31.983
381.00	31.965
380.50	31.957
380.00	31.920
379.50	31.863
379.00	31.812
378.50	31.779
378.00	31.734
377.50	31.680
377.00	31.624
376.50	31.592
376.00	31.567
375.50	31.504
375.00	31.428
374.50	31.443
374.00	31.401
373.50	31.378
373.00	31.365
372.50	31.358
372.00	31.360
371.50	31.362
371.00	31.337
370.50	31.330
370.00	31.272
369.50	31.207
369.00	31.159
368.50	31.079
368.00	30.989
367.50	30.965
367.00	30.950
366.50	30.922
366.00	30.904
365.50	30.904
365.00	30.887
364.50	30.871
364.00	30.808
363.50	30.752
363.00	30.664
362.50	30.574
362.00	30.517
361.50	30.476
361.00	30.415
360.50	30.397
360.00	30.369
359.50	30.302
359.00	30.277
358.50	30.262
358.00	30.199
357.50	30.186
357.00	30.165
356.50	30.158
356.00	30.167
355.50	30.149
355.00	30.131
354.50	30.131
354.00	30.080
353.50	30.095
353.00	30.084
352.50	30.022
352.00	29.994
351.50	30.020
351.00	30.016
350.50	30.070
350.00	30.115
349.50	30.128
349.00	30.151
348.50	30.187
348.00	30.188
347.50	30.204
347.00	30.237
346.50	30.287
346.00	30.357
345.50	30.390
345.00	30.374
344.50	30.386
344.00	30.403
343.50	30.421
343.00	30.549
342.50	30.492
342.00	30.421
341.50	30.480
341.00	30.659
340.50	30.975
340.00	31.454
339.50	31.946
339.00	32.423
338.50	32.747
338.00	32.884
337.50	32.893
337.00	32.844
336.50	32.782
336.00	32.920
335.50	32.998
335.00	33.052
334.50	33.116
334.00	33.164
333.50	33.167
333.00	33.189
332.50	33.191
332.00	33.230
331.50	33.285
331.00	33.299
330.50	33.326
330.00	33.358
329.50	33.397
329.00	33.448
328.50	33.479
328.00	33.473
327.50	33.473
327.00	33.476
326.50	33.490
326.00	33.534
325.50	33.581
325.00	33.606
324.50	33.645
324.00	33.672
323.50	33.687
323.00	33.693
322.50	33.709
322.00	33.743
321.50	33.782
321.00	33.862
320.50	33.952
320.00	33.988
319.50	33.998
319.00	34.003
318.50	34.008
318.00	33.999
317.50	34.000
317.00	34.033
316.50	34.066
316.00	34.099
315.50	34.110
315.00	34.126
314.50	34.099
314.00	34.123
313.50	34.163
313.00	34.194
312.50	34.207
312.00	34.229
311.50	34.271
311.00	34.303
310.50	34.324
310.00	34.360
309.50	34.362
309.00	34.378
308.50	34.371
308.00	34.366
307.50	34.345
307.00	34.354
306.50	34.366
306.00	34.402
305.50	34.469
305.00	34.473
304.50	34.499
304.00	34.506
303.50	34.526
303.00	34.563
302.50	34.557
302.00	34.545
301.50	34.567
301.00	34.585
300.50	34.614
300.00	34.607
299.50	34.574
299.00	34.530
298.50	34.550
298.00	34.566
297.50	34.576
297.00	34.595
296.50	34.644
296.00	34.672
295.50	34.664
295.00	34.640
294.50	34.637
294.00	34.647
293.50	34.674
293.00	34.683
292.50	34.710
292.00	34.714
291.50	34.716
291.00	34.721
290.50	34.690
290.00	34.705
289.50	34.704
289.00	34.724
288.50	34.750
288.00	34.769
287.50	34.774
287.00	34.795
286.50	34.813
286.00	34.823
285.50	34.842
285.00	34.865
284.50	34.888
284.00	34.919
283.50	34.914
283.00	34.942
282.50	34.923
282.00	34.917
281.50	34.942
281.00	34.962
280.50	34.992
280.00	35.041
279.50	35.078
279.00	35.107
278.50	35.106
278.00	35.075
277.50	35.051
277.00	35.037
276.50	35.000
276.00	35.000
275.50	35.034
275.00	35.044
274.50	35.039
274.00	35.011
273.50	34.966
273.00	34.916
272.50	34.876
272.00	34.834
271.50	34.812
271.00	34.742
270.50	34.710
270.00	34.638
269.50	34.561
269.00	34.493
268.50	34.453
268.00	34.398
267.50	34.338
267.00	34.289
266.50	34.223
266.00	34.138
265.50	34.063
265.00	33.962
264.50	33.881
264.00	33.782
263.50	33.713
263.00	33.604
262.50	33.506
262.00	33.431
261.50	33.354
261.00	33.253
260.50	33.173
260.00	33.103
259.50	33.034
259.00	32.954
258.50	32.857
258.00	32.761
257.50	32.675
257.00	32.562
256.50	32.476
256.00	32.374
255.50	32.273
255.00	32.197
254.50	32.110
254.00	32.003
253.50	31.930
253.00	31.883
252.50	31.843
252.00	31.807
251.50	31.752
251.00	31.694
250.50	31.638
250.00	31.526
249.50	31.451
249.00	31.369
248.50	31.310
248.00	31.266
247.50	31.210
247.00	31.158
246.50	31.117
246.00	31.080
245.50	31.034
245.00	31.008
244.50	30.986
244.00	30.939
243.50	30.905
243.00	30.834
242.50	30.775
242.00	30.730
241.50	30.685
241.00	30.645
240.50	30.633
240.00	30.609
239.50	30.606
239.00	30.561
238.50	30.508
238.00	30.485
237.50	30.465
237.00	30.444
236.50	30.436
236.00	30.422
235.50	30.398
235.00	30.395
234.50	30.382
234.00	30.351
233.50	30.338
233.00	30.328
232.50	30.351
232.00	30.317
231.50	30.291
231.00	30.257
230.50	30.249
230.00	30.270
229.50	30.277
229.00	30.305
228.50	30.293
228.00	30.291
227.50	30.292
227.00	30.255
226.50	30.206
226.00	30.194
225.50	30.216
225.00	30.211
224.50	30.202
224.00	30.181
223.50	30.173
223.00	30.183
222.50	30.191
222.00	30.198
221.50	30.162
221.00	30.133
220.50	30.125
220.00	30.090
219.50	30.037
219.00	29.986
218.50	29.945
218.00	29.882
217.50	29.849
217.00	29.811
216.50	29.783
216.00	29.788
215.50	29.793
215.00	29.755
214.50	29.692
214.00	29.618
213.50	29.527
213.00	29.467
212.50	29.400
212.00	29.340
211.50	29.299
211.00	29.222
210.50	29.162
210.00	29.094
209.50	29.040
209.00	28.996
208.50	28.934
208.00	28.848
207.50	28.791
207.00	28.813
206.50	28.797
206.00	28.814
205.50	28.764
205.00	28.720
204.50	28.663
204.00	28.601
203.50	28.547
203.00	28.493
202.50	28.496
202.00	28.511
201.50	28.474
201.00	28.381
200.50	28.300
200.00	28.284
199.50	28.264
199.00	28.225
198.50	28.126
198.00	28.021
197.50	27.875
197.00	27.742
196.50	27.647
196.00	27.579
195.50	27.575
195.00	27.625
194.50	27.605
194.00	27.430
193.50	27.220
193.00	27.114
192.50	27.094
192.00	27.113
191.50	27.161
191.00	27.215
190.50	27.241
190.00	27.220

