ｻﾝﾌﾟﾙ:	CdS_190-1100_600_1_05
ﾌｧｲﾙ名:	CdS_190-1100_600_1_05.UDS
分析日時:	'13:24:45, 09/20/2024
ｵﾍﾟﾚｰﾀ:	OB
ｺﾒﾝﾄ:	'

光度計
ﾓﾃﾞﾙ:	U-3900形分光光度計
ｼﾘｱﾙ No.:	'3004-010
ROM Ver.:	2J25300 07

装置条件
測定ﾓｰﾄﾞ:	波長ｽｷｬﾝ
ﾃﾞｰﾀﾓｰﾄﾞ:	%T
開始波長:	1100.00 nm
終了波長:	190.00 nm
ｽｷｬﾝｽﾋﾟｰﾄﾞ:	600 nm/min
ｻﾝﾌﾟﾘﾝｸﾞ間隔:	0.50 nm
初期待ち時間:	0 s
繰り返し周期:	0.0 min
測定回数:	1
測定前ｵｰﾄｾﾞﾛ:	Off
ｽﾘｯﾄ:	1 nm
ﾎﾄﾏﾙ電圧:	自動制御
光源切換ﾓｰﾄﾞ:	自動切換
光源切換波長:	340.00 nm
ﾍﾞｰｽﾗｲﾝ設定:	ﾕｰｻﾞ 1
高分解能測定:	Off
D2ﾗﾝﾌﾟ:	On
WIﾗﾝﾌﾟ:	On
R/S反転:	Off
ｾﾙ長:	10.0 mm

ﾋﾟｰｸ検出
検出方法:	Rectangular
感度:	1
しきい値:	0.0100

ﾋﾟｰｸ
ﾋﾟｰｸ No.	開始 (nm)	ﾋﾟｰｸ (nm)	終了 (nm)	高さ (%T)	ﾊﾞﾚｰ (nm)	ﾊﾞﾚｰ (%T)
1	1100.00	1098.00	1095.50	-40.586	1095.50	213.198
2	1095.50	1088.00	1078.50	-87.869	1078.50	70.841
3	1078.50	1075.00	1067.50	12.625	1067.50	116.886
4	1067.50	1065.00	1064.00	71.624	1064.00	106.345
5	1064.00	1057.50	1054.50	50.208	1054.50	82.320
6	1054.50	1049.00	1048.00	63.272	1048.00	71.826
7	1048.00	1046.00	1043.00	62.682	1043.00	71.270
8	1043.00	1041.50	1038.50	62.523	1038.50	68.845
9	1038.50	1036.50	1035.00	65.608	1035.00	68.270
10	1035.00	1032.50	1031.50	66.435	1031.50	68.586
11	1031.50	1026.00	1024.00	66.074	1024.00	66.888
12	1024.00	1022.00	1016.00	65.328	1016.00	67.490
13	1016.00	1015.00	1011.50	66.423	1011.50	67.285
14	1011.50	1009.50	1006.50	65.747	1006.50	67.020
15	1006.50	1005.00	1000.50	66.316	1000.50	67.590
16	1000.50	997.50	991.00	66.684	991.00	67.795
17	991.00	986.00	984.50	66.109	984.50	66.776
18	984.50	981.50	979.50	66.174	979.50	66.915
19	979.50	977.50	975.00	66.173	975.00	66.924
20	975.00	970.50	964.00	65.982	964.00	67.333
21	964.00	961.00	960.00	66.589	960.00	67.412
22	960.00	957.50	950.50	65.857	950.50	67.777
23	950.50	948.00	945.50	65.614	945.50	67.259
24	945.50	943.00	938.50	66.408	938.50	67.609
25	938.50	934.50	934.00	66.809	934.00	67.301
26	934.00	931.00	929.50	66.234	929.50	66.874
27	929.50	927.00	923.00	65.682	923.00	67.259
28	923.00	918.00	915.50	66.175	915.50	67.072
29	915.50	907.50	901.50	65.904	901.50	67.176
30	901.50	899.00	893.50	65.889	893.50	67.188
31	893.50	890.50	888.00	66.221	888.00	68.068
32	888.00	885.00	883.00	66.924	883.00	67.591
33	883.00	880.50	878.00	66.486	878.00	67.484
34	878.00	876.00	873.00	66.370	873.00	67.766
35	873.00	869.50	865.00	66.735	865.00	67.304
36	865.00	859.50	857.50	66.218	857.50	66.711
37	857.50	853.50	851.50	66.427	851.50	67.207
38	851.50	846.50	844.00	66.192	844.00	67.324
39	844.00	838.50	835.50	66.218	835.50	66.989
40	835.50	834.00	826.50	66.285	826.50	67.224
41	826.50	824.00	817.00	66.224	817.00	67.003
42	817.00	810.50	807.50	66.373	807.50	67.035
43	807.50	803.50	800.50	65.929	800.50	66.815
44	800.50	791.50	785.50	66.425	785.50	66.904
45	785.50	781.50	778.50	66.126	778.50	66.628
46	778.50	777.00	770.50	66.469	770.50	66.663
47	770.50	766.50	765.00	66.439	765.00	66.669
48	765.00	762.50	757.00	66.242	757.00	66.692
49	757.00	754.50	751.50	66.462	751.50	66.748
50	751.50	748.00	746.50	66.211	746.50	66.474
51	746.50	738.50	735.50	66.133	735.50	66.376
52	735.50	732.50	730.50	66.223	730.50	66.430
53	730.50	727.00	724.00	66.029	724.00	66.391
54	724.00	718.00	715.50	66.066	715.50	66.249
55	715.50	713.00	710.00	66.119	710.00	66.238
56	710.00	704.00	701.50	66.023	701.50	66.174
57	701.50	699.50	697.50	65.979	697.50	66.125
58	697.50	695.00	693.00	65.974	693.00	66.164
59	693.00	685.50	683.50	65.880	683.50	65.931
60	683.50	680.00	676.00	65.622	676.00	65.766
61	676.00	671.50	668.50	65.546	668.50	65.786
62	668.50	664.50	663.00	65.653	663.00	65.725
63	663.00	655.00	653.00	65.288	653.00	65.400
64	653.00	650.50	648.50	65.295	648.50	65.503
65	648.50	638.00	636.00	65.094	636.00	65.244
66	636.00	634.50	632.00	65.148	632.00	65.237
67	632.00	623.50	621.50	64.857	621.50	64.945
68	621.50	513.50	505.00	0.000	505.00	0.014
69	505.00	481.00	455.50	-0.003	455.50	0.011
70	455.50	446.50	414.00	-0.010	414.00	0.020
71	414.00	409.50	385.00	-0.001	385.00	0.031
72	385.00	378.00	363.50	-0.035	363.50	0.024
73	363.50	357.50	344.50	0.009	344.50	0.038
74	344.50	320.00	276.50	-0.011	276.50	0.002
75	276.50	245.50	202.00	-0.008	202.00	0.037
76	202.00	200.00	190.00	0.026	190.00	0.328

ﾃﾞｰﾀﾘｽﾄ
nm	%T
1100.00	207.564
1099.50	155.210
1099.00	123.143
1098.50	-11.803
1098.00	-40.586
1097.50	5.706
1097.00	86.358
1096.50	170.315
1096.00	203.544
1095.50	213.198
1095.00	200.153
1094.50	194.076
1094.00	52.500
1093.50	74.193
1093.00	5.562
1092.50	15.325
1092.00	96.122
1091.50	69.551
1091.00	28.476
1090.50	-21.431
1090.00	-80.193
1089.50	-42.877
1089.00	-38.203
1088.50	-64.549
1088.00	-87.869
1087.50	-84.726
1087.00	-64.529
1086.50	-35.108
1086.00	-9.095
1085.50	1.455
1085.00	5.921
1084.50	29.629
1084.00	64.658
1083.50	65.128
1083.00	21.409
1082.50	48.121
1082.00	40.393
1081.50	53.635
1081.00	56.715
1080.50	57.946
1080.00	47.721
1079.50	40.003
1079.00	54.268
1078.50	70.841
1078.00	65.736
1077.50	28.260
1077.00	59.716
1076.50	60.152
1076.00	43.098
1075.50	26.960
1075.00	12.625
1074.50	26.822
1074.00	37.307
1073.50	54.541
1073.00	55.914
1072.50	60.765
1072.00	67.997
1071.50	67.437
1071.00	67.458
1070.50	15.279
1070.00	35.528
1069.50	64.214
1069.00	88.277
1068.50	103.456
1068.00	114.442
1067.50	116.886
1067.00	101.844
1066.50	92.697
1066.00	82.071
1065.50	74.067
1065.00	71.624
1064.50	76.149
1064.00	106.345
1063.50	86.711
1063.00	83.089
1062.50	74.347
1062.00	73.897
1061.50	76.457
1061.00	78.416
1060.50	80.801
1060.00	79.031
1059.50	70.430
1059.00	64.004
1058.50	54.135
1058.00	54.014
1057.50	50.208
1057.00	56.977
1056.50	61.464
1056.00	65.901
1055.50	70.158
1055.00	79.522
1054.50	82.320
1054.00	79.803
1053.50	77.808
1053.00	76.487
1052.50	74.736
1052.00	73.041
1051.50	70.754
1051.00	72.673
1050.50	69.217
1050.00	66.660
1049.50	65.042
1049.00	63.272
1048.50	67.966
1048.00	71.826
1047.50	69.862
1047.00	70.092
1046.50	67.535
1046.00	62.682
1045.50	63.117
1045.00	63.565
1044.50	66.251
1044.00	67.704
1043.50	69.784
1043.00	71.270
1042.50	66.959
1042.00	63.542
1041.50	62.523
1041.00	63.716
1040.50	63.426
1040.00	66.770
1039.50	67.798
1039.00	68.017
1038.50	68.845
1038.00	67.503
1037.50	66.820
1037.00	66.320
1036.50	65.608
1036.00	67.604
1035.50	67.805
1035.00	68.270
1034.50	68.054
1034.00	67.523
1033.50	66.682
1033.00	66.925
1032.50	66.435
1032.00	67.341
1031.50	68.586
1031.00	67.650
1030.50	67.400
1030.00	66.946
1029.50	66.690
1029.00	65.745
1028.50	66.154
1028.00	66.253
1027.50	66.535
1027.00	66.890
1026.50	66.364
1026.00	66.074
1025.50	66.230
1025.00	66.174
1024.50	66.766
1024.00	66.888
1023.50	66.611
1023.00	66.289
1022.50	65.880
1022.00	65.328
1021.50	65.860
1021.00	65.879
1020.50	66.184
1020.00	66.521
1019.50	66.542
1019.00	67.179
1018.50	67.451
1018.00	67.339
1017.50	67.284
1017.00	67.139
1016.50	67.360
1016.00	67.490
1015.50	66.637
1015.00	66.423
1014.50	66.672
1014.00	66.787
1013.50	67.063
1013.00	67.172
1012.50	66.954
1012.00	67.134
1011.50	67.285
1011.00	66.908
1010.50	66.596
1010.00	66.006
1009.50	65.747
1009.00	66.047
1008.50	66.310
1008.00	66.403
1007.50	66.641
1007.00	66.797
1006.50	67.020
1006.00	66.588
1005.50	66.494
1005.00	66.316
1004.50	66.331
1004.00	66.367
1003.50	66.357
1003.00	66.537
1002.50	66.395
1002.00	66.811
1001.50	67.251
1001.00	67.492
1000.50	67.590
1000.00	67.541
999.50	67.528
999.00	67.273
998.50	67.247
998.00	67.185
997.50	66.684
997.00	66.875
996.50	66.783
996.00	66.829
995.50	66.864
995.00	66.891
994.50	66.967
994.00	66.946
993.50	66.849
993.00	66.919
992.50	67.077
992.00	67.246
991.50	67.542
991.00	67.795
990.50	67.487
990.00	67.440
989.50	67.006
989.00	66.602
988.50	66.439
988.00	66.321
987.50	66.396
987.00	66.265
986.50	66.436
986.00	66.109
985.50	66.476
985.00	66.706
984.50	66.776
984.00	66.636
983.50	66.530
983.00	66.478
982.50	66.375
982.00	66.187
981.50	66.174
981.00	66.198
980.50	66.800
980.00	66.817
979.50	66.915
979.00	66.264
978.50	66.196
978.00	66.326
977.50	66.173
977.00	66.203
976.50	66.362
976.00	66.490
975.50	66.882
975.00	66.924
974.50	66.782
974.00	66.412
973.50	66.582
973.00	66.643
972.50	66.699
972.00	66.508
971.50	66.276
971.00	66.262
970.50	65.982
970.00	66.182
969.50	66.216
969.00	66.204
968.50	66.436
968.00	66.827
967.50	67.417
967.00	67.349
966.50	66.939
966.00	66.958
965.50	67.044
965.00	67.075
964.50	67.079
964.00	67.333
963.50	67.048
963.00	67.287
962.50	67.049
962.00	67.024
961.50	66.702
961.00	66.589
960.50	67.225
960.00	67.412
959.50	67.160
959.00	66.929
958.50	66.338
958.00	65.991
957.50	65.857
957.00	65.876
956.50	66.058
956.00	66.901
955.50	67.121
955.00	67.062
954.50	66.580
954.00	66.111
953.50	66.059
953.00	66.083
952.50	66.563
952.00	67.125
951.50	67.304
951.00	67.749
950.50	67.777
950.00	67.149
949.50	66.397
949.00	65.996
948.50	65.880
948.00	65.614
947.50	65.800
947.00	66.187
946.50	66.847
946.00	66.983
945.50	67.259
945.00	67.153
944.50	66.809
944.00	66.590
943.50	66.473
943.00	66.408
942.50	66.699
942.00	66.824
941.50	67.042
941.00	67.397
940.50	67.469
940.00	67.439
939.50	67.454
939.00	67.546
938.50	67.609
938.00	67.365
937.50	67.271
937.00	67.038
936.50	67.151
936.00	66.968
935.50	67.292
935.00	67.038
934.50	66.809
934.00	67.301
933.50	67.290
933.00	66.992
932.50	66.511
932.00	66.345
931.50	66.338
931.00	66.234
930.50	66.528
930.00	66.688
929.50	66.874
929.00	66.750
928.50	66.791
928.00	66.264
927.50	65.882
927.00	65.682
926.50	65.711
926.00	65.820
925.50	65.916
925.00	66.157
924.50	66.817
924.00	67.025
923.50	67.083
923.00	67.259
922.50	67.230
922.00	67.117
921.50	67.012
921.00	67.032
920.50	67.243
920.00	67.099
919.50	66.979
919.00	66.920
918.50	66.527
918.00	66.175
917.50	66.431
917.00	66.483
916.50	66.566
916.00	66.707
915.50	67.072
915.00	67.001
914.50	66.789
914.00	67.025
913.50	66.922
913.00	66.699
912.50	66.540
912.00	66.543
911.50	66.723
911.00	66.771
910.50	66.878
910.00	66.783
909.50	66.783
909.00	66.452
908.50	66.465
908.00	65.932
907.50	65.904
907.00	66.025
906.50	66.281
906.00	66.455
905.50	66.633
905.00	66.720
904.50	66.906
904.00	66.944
903.50	66.878
903.00	66.746
902.50	66.728
902.00	67.000
901.50	67.176
901.00	67.028
900.50	66.661
900.00	66.193
899.50	66.048
899.00	65.889
898.50	65.920
898.00	66.134
897.50	66.364
897.00	66.946
896.50	67.164
896.00	67.091
895.50	66.743
895.00	66.709
894.50	66.789
894.00	67.148
893.50	67.188
893.00	67.114
892.50	67.094
892.00	67.077
891.50	66.836
891.00	66.604
890.50	66.221
890.00	66.547
889.50	66.737
889.00	67.271
888.50	67.743
888.00	68.068
887.50	67.936
887.00	67.706
886.50	67.604
886.00	67.432
885.50	67.019
885.00	66.924
884.50	66.983
884.00	67.029
883.50	67.339
883.00	67.591
882.50	67.399
882.00	67.171
881.50	66.894
881.00	66.705
880.50	66.486
880.00	66.687
879.50	66.815
879.00	67.123
878.50	67.393
878.00	67.484
877.50	67.419
877.00	66.792
876.50	66.455
876.00	66.370
875.50	66.384
875.00	66.792
874.50	67.041
874.00	67.247
873.50	67.311
873.00	67.766
872.50	67.753
872.00	67.495
871.50	67.241
871.00	66.935
870.50	66.872
870.00	66.756
869.50	66.735
869.00	66.966
868.50	66.916
868.00	67.065
867.50	67.169
867.00	67.182
866.50	67.101
866.00	67.260
865.50	67.209
865.00	67.304
864.50	67.106
864.00	66.808
863.50	66.834
863.00	66.739
862.50	66.915
862.00	67.073
861.50	66.807
861.00	66.577
860.50	66.478
860.00	66.305
859.50	66.218
859.00	66.307
858.50	66.494
858.00	66.702
857.50	66.711
857.00	66.621
856.50	66.671
856.00	66.568
855.50	66.593
855.00	66.663
854.50	66.636
854.00	66.568
853.50	66.427
853.00	66.613
852.50	66.916
852.00	67.082
851.50	67.207
851.00	67.010
850.50	66.689
850.00	66.436
849.50	66.398
849.00	66.438
848.50	66.427
848.00	66.403
847.50	66.525
847.00	66.514
846.50	66.192
846.00	66.245
845.50	66.515
845.00	66.746
844.50	66.978
844.00	67.324
843.50	67.307
843.00	67.076
842.50	66.879
842.00	66.575
841.50	66.443
841.00	66.556
840.50	66.655
840.00	66.734
839.50	66.579
839.00	66.466
838.50	66.218
838.00	66.233
837.50	66.240
837.00	66.425
836.50	66.628
836.00	66.838
835.50	66.989
835.00	66.697
834.50	66.319
834.00	66.285
833.50	66.324
833.00	66.349
832.50	66.485
832.00	66.688
831.50	66.616
831.00	66.571
830.50	66.744
830.00	66.595
829.50	66.371
829.00	66.510
828.50	66.654
828.00	66.730
827.50	66.748
827.00	66.927
826.50	67.224
826.00	67.055
825.50	66.716
825.00	66.557
824.50	66.441
824.00	66.224
823.50	66.406
823.00	66.462
822.50	66.498
822.00	66.724
821.50	66.509
821.00	66.398
820.50	66.316
820.00	66.320
819.50	66.560
819.00	66.766
818.50	66.795
818.00	66.995
817.50	66.968
817.00	67.003
816.50	66.861
816.00	66.609
815.50	66.617
815.00	66.689
814.50	66.587
814.00	66.543
813.50	66.652
813.00	66.675
812.50	66.639
812.00	66.596
811.50	66.483
811.00	66.451
810.50	66.373
810.00	66.526
809.50	66.585
809.00	66.665
808.50	66.901
808.00	66.927
807.50	67.035
807.00	66.966
806.50	66.855
806.00	66.748
805.50	66.552
805.00	66.446
804.50	66.232
804.00	66.059
803.50	65.929
803.00	66.102
802.50	66.294
802.00	66.445
801.50	66.814
801.00	66.813
800.50	66.815
800.00	66.791
799.50	66.674
799.00	66.628
798.50	66.465
798.00	66.627
797.50	66.608
797.00	66.669
796.50	66.649
796.00	66.688
795.50	66.671
795.00	66.577
794.50	66.593
794.00	66.643
793.50	66.606
793.00	66.558
792.50	66.534
792.00	66.472
791.50	66.425
791.00	66.480
790.50	66.464
790.00	66.575
789.50	66.691
789.00	66.716
788.50	66.782
788.00	66.856
787.50	66.755
787.00	66.899
786.50	66.895
786.00	66.887
785.50	66.904
785.00	66.783
784.50	66.738
784.00	66.588
783.50	66.429
783.00	66.411
782.50	66.338
782.00	66.164
781.50	66.126
781.00	66.172
780.50	66.175
780.00	66.353
779.50	66.451
779.00	66.563
778.50	66.628
778.00	66.608
777.50	66.612
777.00	66.469
776.50	66.482
776.00	66.521
775.50	66.546
775.00	66.547
774.50	66.610
774.00	66.619
773.50	66.601
773.00	66.603
772.50	66.599
772.00	66.573
771.50	66.615
771.00	66.640
770.50	66.663
770.00	66.605
769.50	66.607
769.00	66.610
768.50	66.563
768.00	66.499
767.50	66.454
767.00	66.469
766.50	66.439
766.00	66.519
765.50	66.620
765.00	66.669
764.50	66.620
764.00	66.603
763.50	66.425
763.00	66.373
762.50	66.242
762.00	66.348
761.50	66.414
761.00	66.571
760.50	66.650
760.00	66.702
759.50	66.536
759.00	66.528
758.50	66.518
758.00	66.575
757.50	66.653
757.00	66.692
756.50	66.671
756.00	66.689
755.50	66.636
755.00	66.576
754.50	66.462
754.00	66.494
753.50	66.533
753.00	66.581
752.50	66.557
752.00	66.715
751.50	66.748
751.00	66.672
750.50	66.586
750.00	66.454
749.50	66.338
749.00	66.230
748.50	66.223
748.00	66.211
747.50	66.275
747.00	66.410
746.50	66.474
746.00	66.470
745.50	66.400
745.00	66.425
744.50	66.459
744.00	66.446
743.50	66.386
743.00	66.367
742.50	66.383
742.00	66.413
741.50	66.417
741.00	66.409
740.50	66.330
740.00	66.294
739.50	66.202
739.00	66.169
738.50	66.133
738.00	66.163
737.50	66.189
737.00	66.213
736.50	66.271
736.00	66.307
735.50	66.376
735.00	66.366
734.50	66.320
734.00	66.306
733.50	66.300
733.00	66.305
732.50	66.223
732.00	66.271
731.50	66.320
731.00	66.385
730.50	66.430
730.00	66.410
729.50	66.325
729.00	66.260
728.50	66.259
728.00	66.149
727.50	66.090
727.00	66.029
726.50	66.120
726.00	66.215
725.50	66.233
725.00	66.302
724.50	66.350
724.00	66.391
723.50	66.378
723.00	66.333
722.50	66.268
722.00	66.228
721.50	66.257
721.00	66.234
720.50	66.192
720.00	66.145
719.50	66.149
719.00	66.110
718.50	66.083
718.00	66.066
717.50	66.118
717.00	66.232
716.50	66.217
716.00	66.231
715.50	66.249
715.00	66.176
714.50	66.160
714.00	66.151
713.50	66.122
713.00	66.119
712.50	66.172
712.00	66.191
711.50	66.186
711.00	66.180
710.50	66.208
710.00	66.238
709.50	66.143
709.00	66.079
708.50	66.060
708.00	65.980
707.50	65.990
707.00	66.034
706.50	66.102
706.00	66.080
705.50	66.059
705.00	66.099
704.50	66.037
704.00	66.023
703.50	66.061
703.00	66.105
702.50	66.132
702.00	66.170
701.50	66.174
701.00	66.088
700.50	66.027
700.00	66.016
699.50	65.979
699.00	66.009
698.50	66.040
698.00	66.118
697.50	66.125
697.00	66.102
696.50	66.072
696.00	66.036
695.50	65.989
695.00	65.974
694.50	66.019
694.00	66.049
693.50	66.151
693.00	66.164
692.50	66.104
692.00	66.063
691.50	66.017
691.00	65.952
690.50	65.947
690.00	65.910
689.50	65.909
689.00	65.980
688.50	65.971
688.00	65.941
687.50	65.925
687.00	65.907
686.50	65.969
686.00	65.917
685.50	65.880
685.00	65.907
684.50	65.903
684.00	65.915
683.50	65.931
683.00	65.927
682.50	65.898
682.00	65.920
681.50	65.832
681.00	65.777
680.50	65.665
680.00	65.622
679.50	65.677
679.00	65.702
678.50	65.707
678.00	65.759
677.50	65.750
677.00	65.753
676.50	65.747
676.00	65.766
675.50	65.745
675.00	65.756
674.50	65.762
674.00	65.747
673.50	65.716
673.00	65.647
672.50	65.601
672.00	65.592
671.50	65.546
671.00	65.610
670.50	65.650
670.00	65.689
669.50	65.742
669.00	65.753
668.50	65.786
668.00	65.754
667.50	65.741
667.00	65.669
666.50	65.684
666.00	65.669
665.50	65.676
665.00	65.709
664.50	65.653
664.00	65.696
663.50	65.710
663.00	65.725
662.50	65.718
662.00	65.648
661.50	65.674
661.00	65.673
660.50	65.689
660.00	65.639
659.50	65.620
659.00	65.629
658.50	65.631
658.00	65.622
657.50	65.568
657.00	65.567
656.50	65.485
656.00	65.427
655.50	65.371
655.00	65.288
654.50	65.294
654.00	65.300
653.50	65.379
653.00	65.400
652.50	65.390
652.00	65.381
651.50	65.357
651.00	65.321
650.50	65.295
650.00	65.344
649.50	65.384
649.00	65.486
648.50	65.503
648.00	65.467
647.50	65.474
647.00	65.426
646.50	65.396
646.00	65.367
645.50	65.339
645.00	65.325
644.50	65.347
644.00	65.372
643.50	65.389
643.00	65.340
642.50	65.292
642.00	65.285
641.50	65.286
641.00	65.266
640.50	65.240
640.00	65.217
639.50	65.169
639.00	65.147
638.50	65.114
638.00	65.094
637.50	65.108
637.00	65.163
636.50	65.221
636.00	65.244
635.50	65.209
635.00	65.159
634.50	65.148
634.00	65.158
633.50	65.177
633.00	65.208
632.50	65.228
632.00	65.237
631.50	65.208
631.00	65.154
630.50	65.058
630.00	64.985
629.50	64.957
629.00	64.941
628.50	64.907
628.00	64.908
627.50	64.915
627.00	64.938
626.50	64.944
626.00	64.917
625.50	64.920
625.00	64.921
624.50	64.902
624.00	64.881
623.50	64.857
623.00	64.859
622.50	64.891
622.00	64.935
621.50	64.945
621.00	64.918
620.50	64.903
620.00	64.870
619.50	64.831
619.00	64.762
618.50	64.726
618.00	64.741
617.50	64.721
617.00	64.680
616.50	64.651
616.00	64.617
615.50	64.601
615.00	64.618
614.50	64.636
614.00	64.645
613.50	64.621
613.00	64.584
612.50	64.554
612.00	64.534
611.50	64.494
611.00	64.491
610.50	64.485
610.00	64.457
609.50	64.434
609.00	64.421
608.50	64.463
608.00	64.479
607.50	64.501
607.00	64.497
606.50	64.424
606.00	64.367
605.50	64.345
605.00	64.293
604.50	64.273
604.00	64.253
603.50	64.270
603.00	64.258
602.50	64.223
602.00	64.214
601.50	64.178
601.00	64.145
600.50	64.128
600.00	64.163
599.50	64.150
599.00	64.095
598.50	64.130
598.00	64.127
597.50	64.119
597.00	64.116
596.50	64.099
596.00	64.035
595.50	63.958
595.00	63.924
594.50	63.861
594.00	63.793
593.50	63.736
593.00	63.745
592.50	63.741
592.00	63.700
591.50	63.688
591.00	63.674
590.50	63.636
590.00	63.643
589.50	63.649
589.00	63.640
588.50	63.651
588.00	63.635
587.50	63.584
587.00	63.519
586.50	63.494
586.00	63.522
585.50	63.521
585.00	63.485
584.50	63.396
584.00	63.330
583.50	63.280
583.00	63.268
582.50	63.252
582.00	63.240
581.50	63.223
581.00	63.243
580.50	63.190
580.00	63.119
579.50	63.022
579.00	62.959
578.50	62.941
578.00	62.956
577.50	62.940
577.00	62.940
576.50	62.912
576.00	62.863
575.50	62.809
575.00	62.726
574.50	62.613
574.00	62.558
573.50	62.536
573.00	62.509
572.50	62.490
572.00	62.389
571.50	62.330
571.00	62.279
570.50	62.212
570.00	62.161
569.50	62.124
569.00	62.112
568.50	62.105
568.00	62.031
567.50	61.905
567.00	61.806
566.50	61.796
566.00	61.706
565.50	61.665
565.00	61.579
564.50	61.563
564.00	61.507
563.50	61.451
563.00	61.362
562.50	61.279
562.00	61.219
561.50	61.198
561.00	61.138
560.50	61.067
560.00	61.021
559.50	61.006
559.00	60.940
558.50	60.879
558.00	60.776
557.50	60.698
557.00	60.590
556.50	60.515
556.00	60.450
555.50	60.342
555.00	60.213
554.50	60.138
554.00	60.040
553.50	59.916
553.00	59.815
552.50	59.720
552.00	59.633
551.50	59.556
551.00	59.480
550.50	59.400
550.00	59.239
549.50	59.101
549.00	58.999
548.50	58.868
548.00	58.750
547.50	58.644
547.00	58.551
546.50	58.428
546.00	58.326
545.50	58.203
545.00	58.031
544.50	57.821
544.00	57.673
543.50	57.541
543.00	57.399
542.50	57.261
542.00	57.073
541.50	56.866
541.00	56.684
540.50	56.487
540.00	56.285
539.50	56.055
539.00	55.814
538.50	55.591
538.00	55.333
537.50	55.016
537.00	54.686
536.50	54.345
536.00	54.051
535.50	53.716
535.00	53.293
534.50	52.792
534.00	52.199
533.50	51.546
533.00	50.801
532.50	50.147
532.00	49.456
531.50	48.668
531.00	47.719
530.50	46.537
530.00	45.132
529.50	43.544
529.00	41.683
528.50	40.035
528.00	38.267
527.50	36.179
527.00	33.630
526.50	30.541
526.00	26.855
525.50	22.955
525.00	18.963
524.50	15.269
524.00	11.958
523.50	9.089
523.00	6.724
522.50	4.748
522.00	2.870
521.50	1.591
521.00	0.728
520.50	0.222
520.00	0.000
519.50	-0.034
519.00	0.015
518.50	0.059
518.00	0.003
517.50	0.003
517.00	0.003
516.50	0.004
516.00	0.004
515.50	0.004
515.00	0.004
514.50	0.003
514.00	0.001
513.50	0.000
513.00	0.002
512.50	0.005
512.00	0.007
511.50	0.009
511.00	0.010
510.50	0.012
510.00	0.012
509.50	0.012
509.00	0.010
508.50	0.008
508.00	0.008
507.50	0.008
507.00	0.008
506.50	0.008
506.00	0.011
505.50	0.013
505.00	0.014
504.50	0.014
504.00	0.013
503.50	0.010
503.00	0.009
502.50	0.010
502.00	0.010
501.50	0.010
501.00	0.012
500.50	0.013
500.00	0.012
499.50	0.011
499.00	0.011
498.50	0.009
498.00	0.009
497.50	0.009
497.00	0.011
496.50	0.010
496.00	0.011
495.50	0.010
495.00	0.009
494.50	0.007
494.00	0.007
493.50	0.007
493.00	0.007
492.50	0.008
492.00	0.007
491.50	0.008
491.00	0.006
490.50	0.005
490.00	0.005
489.50	0.004
489.00	0.005
488.50	0.006
488.00	0.008
487.50	0.010
487.00	0.011
486.50	0.010
486.00	0.009
485.50	0.008
485.00	0.005
484.50	0.005
484.00	0.003
483.50	0.002
483.00	0.003
482.50	0.002
482.00	-0.001
481.50	-0.002
481.00	-0.003
480.50	-0.002
480.00	-0.002
479.50	-0.001
479.00	0.000
478.50	0.001
478.00	0.004
477.50	0.006
477.00	0.003
476.50	0.001
476.00	0.000
475.50	-0.001
475.00	-0.003
474.50	-0.001
474.00	0.000
473.50	0.002
473.00	0.003
472.50	0.005
472.00	0.003
471.50	0.000
471.00	0.001
470.50	0.001
470.00	0.001
469.50	0.001
469.00	0.002
468.50	0.001
468.00	0.000
467.50	0.001
467.00	0.002
466.50	0.003
466.00	0.003
465.50	0.005
465.00	0.006
464.50	0.005
464.00	0.003
463.50	0.002
463.00	0.003
462.50	0.003
462.00	0.003
461.50	0.002
461.00	0.003
460.50	0.002
460.00	0.002
459.50	0.003
459.00	0.000
458.50	0.001
458.00	0.003
457.50	0.007
457.00	0.007
456.50	0.007
456.00	0.010
455.50	0.011
455.00	0.009
454.50	0.007
454.00	0.006
453.50	0.002
453.00	0.001
452.50	0.004
452.00	0.004
451.50	0.008
451.00	0.009
450.50	0.011
450.00	0.010
449.50	0.004
449.00	-0.001
448.50	-0.005
448.00	-0.008
447.50	-0.009
447.00	-0.008
446.50	-0.010
446.00	-0.009
445.50	-0.007
445.00	-0.007
444.50	-0.006
444.00	-0.005
443.50	-0.005
443.00	-0.004
442.50	-0.004
442.00	-0.002
441.50	-0.001
441.00	0.002
440.50	0.004
440.00	0.007
439.50	0.006
439.00	0.005
438.50	0.004
438.00	0.003
437.50	0.002
437.00	0.001
436.50	0.000
436.00	0.001
435.50	0.001
435.00	0.000
434.50	0.001
434.00	0.002
433.50	0.003
433.00	0.004
432.50	0.006
432.00	0.003
431.50	-0.001
431.00	0.000
430.50	-0.001
430.00	-0.002
429.50	-0.001
429.00	0.004
428.50	0.007
428.00	0.007
427.50	0.008
427.00	0.007
426.50	0.006
426.00	0.006
425.50	0.007
425.00	0.005
424.50	0.004
424.00	0.007
423.50	0.009
423.00	0.008
422.50	0.007
422.00	0.009
421.50	0.008
421.00	0.007
420.50	0.006
420.00	0.007
419.50	0.008
419.00	0.012
418.50	0.016
418.00	0.016
417.50	0.017
417.00	0.015
416.50	0.014
416.00	0.014
415.50	0.015
415.00	0.016
414.50	0.018
414.00	0.020
413.50	0.018
413.00	0.017
412.50	0.015
412.00	0.011
411.50	0.008
411.00	0.005
410.50	0.003
410.00	0.001
409.50	-0.001
409.00	-0.001
408.50	0.004
408.00	0.006
407.50	0.009
407.00	0.012
406.50	0.011
406.00	0.011
405.50	0.010
405.00	0.008
404.50	0.008
404.00	0.008
403.50	0.006
403.00	0.005
402.50	0.007
402.00	0.008
401.50	0.012
401.00	0.010
400.50	0.008
400.00	0.007
399.50	0.009
399.00	0.010
398.50	0.010
398.00	0.010
397.50	0.013
397.00	0.015
396.50	0.016
396.00	0.014
395.50	0.012
395.00	0.012
394.50	0.014
394.00	0.015
393.50	0.017
393.00	0.016
392.50	0.018
392.00	0.018
391.50	0.014
391.00	0.013
390.50	0.012
390.00	0.011
389.50	0.011
389.00	0.012
388.50	0.014
388.00	0.018
387.50	0.018
387.00	0.018
386.50	0.020
386.00	0.022
385.50	0.026
385.00	0.031
384.50	0.027
384.00	0.024
383.50	0.020
383.00	0.018
382.50	0.020
382.00	0.023
381.50	0.024
381.00	0.026
380.50	0.020
380.00	0.011
379.50	-0.004
379.00	-0.020
378.50	-0.034
378.00	-0.035
377.50	-0.033
377.00	-0.025
376.50	-0.022
376.00	-0.021
375.50	-0.023
375.00	-0.025
374.50	-0.026
374.00	-0.026
373.50	-0.025
373.00	-0.019
372.50	-0.012
372.00	-0.009
371.50	-0.011
371.00	-0.010
370.50	-0.009
370.00	-0.007
369.50	-0.005
369.00	-0.002
368.50	0.001
368.00	0.002
367.50	0.007
367.00	0.008
366.50	0.009
366.00	0.010
365.50	0.013
365.00	0.016
364.50	0.018
364.00	0.022
363.50	0.024
363.00	0.023
362.50	0.020
362.00	0.017
361.50	0.016
361.00	0.015
360.50	0.015
360.00	0.015
359.50	0.018
359.00	0.016
358.50	0.012
358.00	0.012
357.50	0.009
357.00	0.012
356.50	0.015
356.00	0.017
355.50	0.018
355.00	0.018
354.50	0.017
354.00	0.016
353.50	0.015
353.00	0.014
352.50	0.018
352.00	0.016
351.50	0.014
351.00	0.014
350.50	0.011
350.00	0.013
349.50	0.018
349.00	0.025
348.50	0.027
348.00	0.028
347.50	0.027
347.00	0.025
346.50	0.023
346.00	0.023
345.50	0.031
345.00	0.037
344.50	0.038
344.00	0.034
343.50	0.029
343.00	0.023
342.50	0.021
342.00	0.025
341.50	0.028
341.00	0.030
340.50	0.029
340.00	0.024
339.50	0.014
339.00	0.001
338.50	-0.006
338.00	-0.006
337.50	-0.007
337.00	-0.006
336.50	-0.004
336.00	-0.005
335.50	-0.004
335.00	-0.003
334.50	-0.002
334.00	-0.001
333.50	0.001
333.00	0.002
332.50	0.002
332.00	0.000
331.50	-0.001
331.00	-0.002
330.50	-0.005
330.00	-0.005
329.50	-0.002
329.00	-0.001
328.50	-0.001
328.00	-0.001
327.50	0.001
327.00	-0.002
326.50	-0.001
326.00	-0.001
325.50	-0.004
325.00	-0.005
324.50	-0.006
324.00	-0.004
323.50	-0.004
323.00	-0.004
322.50	-0.003
322.00	-0.004
321.50	-0.005
321.00	-0.008
320.50	-0.009
320.00	-0.011
319.50	-0.008
319.00	-0.004
318.50	-0.002
318.00	-0.001
317.50	-0.003
317.00	-0.005
316.50	-0.006
316.00	-0.006
315.50	-0.006
315.00	-0.007
314.50	-0.007
314.00	-0.007
313.50	-0.006
313.00	-0.008
312.50	-0.007
312.00	-0.006
311.50	-0.004
311.00	-0.004
310.50	-0.004
310.00	-0.007
309.50	-0.008
309.00	-0.009
308.50	-0.007
308.00	-0.005
307.50	-0.003
307.00	-0.003
306.50	-0.005
306.00	-0.007
305.50	-0.008
305.00	-0.009
304.50	-0.008
304.00	-0.008
303.50	-0.007
303.00	-0.006
302.50	-0.006
302.00	-0.005
301.50	-0.005
301.00	-0.005
300.50	-0.004
300.00	-0.003
299.50	-0.004
299.00	-0.005
298.50	-0.007
298.00	-0.006
297.50	-0.004
297.00	-0.002
296.50	-0.001
296.00	-0.002
295.50	-0.005
295.00	-0.005
294.50	-0.004
294.00	-0.004
293.50	-0.006
293.00	-0.007
292.50	-0.007
292.00	-0.008
291.50	-0.009
291.00	-0.009
290.50	-0.009
290.00	-0.005
289.50	-0.001
289.00	-0.001
288.50	-0.004
288.00	-0.006
287.50	-0.008
287.00	-0.007
286.50	-0.006
286.00	-0.004
285.50	-0.004
285.00	-0.002
284.50	-0.002
284.00	-0.003
283.50	-0.005
283.00	-0.006
282.50	-0.004
282.00	-0.003
281.50	-0.003
281.00	-0.004
280.50	-0.007
280.00	-0.009
279.50	-0.008
279.00	-0.008
278.50	-0.005
278.00	-0.001
277.50	0.000
277.00	0.001
276.50	0.002
276.00	0.002
275.50	0.000
275.00	0.000
274.50	0.000
274.00	0.000
273.50	0.001
273.00	-0.001
272.50	0.000
272.00	-0.001
271.50	-0.001
271.00	0.001
270.50	0.001
270.00	0.002
269.50	0.001
269.00	0.000
268.50	-0.003
268.00	-0.003
267.50	-0.003
267.00	-0.002
266.50	0.000
266.00	0.001
265.50	0.002
265.00	0.001
264.50	0.000
264.00	-0.002
263.50	-0.002
263.00	-0.002
262.50	0.000
262.00	0.000
261.50	0.000
261.00	0.000
260.50	0.000
260.00	0.000
259.50	0.000
259.00	0.000
258.50	-0.001
258.00	-0.001
257.50	0.000
257.00	0.000
256.50	0.000
256.00	0.000
255.50	0.000
255.00	0.000
254.50	-0.001
254.00	-0.003
253.50	-0.003
253.00	-0.002
252.50	-0.001
252.00	0.001
251.50	0.000
251.00	-0.003
250.50	-0.003
250.00	-0.005
249.50	-0.006
249.00	-0.005
248.50	-0.005
248.00	-0.005
247.50	-0.006
247.00	-0.008
246.50	-0.007
246.00	-0.008
245.50	-0.008
245.00	-0.007
244.50	-0.007
244.00	-0.005
243.50	-0.005
243.00	-0.006
242.50	-0.005
242.00	-0.005
241.50	-0.004
241.00	-0.004
240.50	-0.002
240.00	-0.002
239.50	-0.002
239.00	-0.001
238.50	-0.002
238.00	-0.002
237.50	-0.004
237.00	-0.004
236.50	-0.005
236.00	-0.007
235.50	-0.004
235.00	-0.003
234.50	-0.003
234.00	-0.002
233.50	-0.001
233.00	-0.003
232.50	-0.003
232.00	-0.004
231.50	-0.002
231.00	0.000
230.50	0.000
230.00	0.001
229.50	0.002
229.00	0.000
228.50	0.000
228.00	-0.001
227.50	-0.001
227.00	-0.001
226.50	0.001
226.00	0.001
225.50	0.003
225.00	0.003
224.50	0.005
224.00	0.006
223.50	0.006
223.00	0.006
222.50	0.005
222.00	0.005
221.50	0.006
221.00	0.006
220.50	0.008
220.00	0.009
219.50	0.010
219.00	0.010
218.50	0.012
218.00	0.010
217.50	0.011
217.00	0.012
216.50	0.013
216.00	0.016
215.50	0.017
215.00	0.018
214.50	0.021
214.00	0.021
213.50	0.022
213.00	0.023
212.50	0.020
212.00	0.017
211.50	0.016
211.00	0.015
210.50	0.017
210.00	0.015
209.50	0.014
209.00	0.016
208.50	0.015
208.00	0.017
207.50	0.021
207.00	0.020
206.50	0.020
206.00	0.024
205.50	0.027
205.00	0.029
204.50	0.029
204.00	0.027
203.50	0.030
203.00	0.030
202.50	0.033
202.00	0.037
201.50	0.034
201.00	0.030
200.50	0.027
200.00	0.026
199.50	0.033
199.00	0.035
198.50	0.034
198.00	0.035
197.50	0.041
197.00	0.051
196.50	0.073
196.00	0.059
195.50	0.059
195.00	0.080
194.50	0.092
194.00	0.105
193.50	0.091
193.00	0.107
192.50	0.154
192.00	0.210
191.50	0.262
191.00	0.298
190.50	0.318
190.00	0.328

