ｻﾝﾌﾟﾙ:	CdS_190-1100_600_1_05_R
ﾌｧｲﾙ名:	CdS_190-1100_600_1_05_R.UDS
分析日時:	'13:50:30, 09/20/2024
ｵﾍﾟﾚｰﾀ:	OB
ｺﾒﾝﾄ:	'

光度計
ﾓﾃﾞﾙ:	U-3900形分光光度計
ｼﾘｱﾙ No.:	'3004-010
ROM Ver.:	2J25300 07

装置条件
測定ﾓｰﾄﾞ:	波長ｽｷｬﾝ
ﾃﾞｰﾀﾓｰﾄﾞ:	%T
開始波長:	1100.00 nm
終了波長:	190.00 nm
ｽｷｬﾝｽﾋﾟｰﾄﾞ:	600 nm/min
ｻﾝﾌﾟﾘﾝｸﾞ間隔:	0.50 nm
初期待ち時間:	0 s
繰り返し周期:	0.0 min
測定回数:	1
測定前ｵｰﾄｾﾞﾛ:	Off
ｽﾘｯﾄ:	1 nm
ﾎﾄﾏﾙ電圧:	自動制御
光源切換ﾓｰﾄﾞ:	自動切換
光源切換波長:	340.00 nm
ﾍﾞｰｽﾗｲﾝ設定:	ﾕｰｻﾞ 1
高分解能測定:	Off
D2ﾗﾝﾌﾟ:	On
WIﾗﾝﾌﾟ:	On
R/S反転:	Off
ｾﾙ長:	10.0 mm

ﾋﾟｰｸ検出
検出方法:	Rectangular
感度:	1
しきい値:	0.0100

ﾋﾟｰｸ
ﾋﾟｰｸ No.	開始 (nm)	ﾋﾟｰｸ (nm)	終了 (nm)	高さ (%T)	ﾊﾞﾚｰ (nm)	ﾊﾞﾚｰ (%T)
1	1100.00	1090.50	1088.00	-117.508	1088.00	72.935
2	1088.00	1083.00	1081.00	-27.003	1081.00	40.460
3	1081.00	1078.00	1075.50	5.439	1075.50	48.371
4	1075.50	1069.00	1066.50	-6.785	1066.50	23.326
5	1066.50	1064.00	1061.00	16.945	1061.00	22.142
6	1061.00	1058.50	1057.00	14.153	1057.00	19.494
7	1057.00	1051.00	1046.00	15.790	1046.00	18.824
8	1046.00	1044.00	1042.00	17.347	1042.00	19.094
9	1042.00	1034.50	1025.00	15.541	1025.00	21.494
10	1025.00	1019.50	1016.50	18.070	1016.50	18.760
11	1016.50	1013.50	1002.50	17.939	1002.50	18.605
12	1002.50	1000.50	996.50	18.080	996.50	18.511
13	996.50	992.50	989.00	18.101	989.00	18.579
14	989.00	983.00	980.50	18.124	980.50	18.367
15	980.50	978.50	976.50	18.160	976.50	18.592
16	976.50	974.50	968.50	18.198	968.50	18.625
17	968.50	964.50	961.50	18.221	961.50	18.644
18	961.50	956.00	954.00	18.352	954.00	18.475
19	954.00	950.50	948.00	18.296	948.00	18.443
20	948.00	946.00	940.00	18.311	940.00	18.715
21	940.00	937.50	929.50	18.460	929.50	19.064
22	929.50	926.00	921.00	18.261	921.00	18.900
23	921.00	918.00	916.00	18.305	916.00	18.903
24	916.00	909.50	907.00	18.447	907.00	19.333
25	907.00	903.00	901.50	18.642	901.50	18.946
26	901.50	899.00	896.50	18.520	896.50	19.080
27	896.50	894.50	892.00	18.620	892.00	19.323
28	892.00	889.50	883.00	18.798	883.00	19.541
29	883.00	880.50	878.00	19.033	878.00	19.338
30	878.00	875.50	871.00	19.009	871.00	19.388
31	871.00	868.50	862.00	18.734	862.00	19.547
32	862.00	858.50	855.00	19.183	855.00	19.665
33	855.00	853.00	850.50	19.234	850.50	19.757
34	850.50	846.00	839.50	19.454	839.50	19.762
35	839.50	837.00	832.00	19.512	832.00	19.946
36	832.00	829.50	825.50	19.649	825.50	20.242
37	825.50	822.50	815.00	19.887	815.00	20.235
38	815.00	812.50	809.50	20.053	809.50	20.352
39	809.50	807.00	801.00	20.183	801.00	20.539
40	801.00	797.00	793.50	20.320	793.50	20.515
41	793.50	788.00	785.50	20.406	785.50	20.595
42	785.50	782.50	780.50	20.495	780.50	20.687
43	780.50	777.00	774.00	20.478	774.00	20.767
44	774.00	770.50	769.00	20.618	769.00	20.768
45	769.00	766.00	758.50	20.589	758.50	20.907
46	758.50	756.00	744.00	20.729	744.00	21.886
47	744.00	738.50	728.00	21.139	728.00	21.308
48	728.00	722.50	719.50	21.220	719.50	21.329
49	719.50	717.00	714.00	21.248	714.00	21.344
50	714.00	712.00	706.00	21.298	706.00	21.396
51	706.00	704.50	695.50	21.365	695.50	21.466
52	695.50	694.00	692.00	21.438	692.00	21.544
53	692.00	690.00	684.50	21.442	684.50	21.555
54	684.50	682.50	675.00	21.447	675.00	21.604
55	675.00	671.00	668.00	21.549	668.00	21.670
56	668.00	663.50	658.00	21.607	658.00	21.765
57	658.00	656.00	635.50	21.673	635.50	21.957
58	635.50	632.50	611.50	21.893	611.50	22.169
59	611.50	609.00	601.50	22.142	601.50	22.299
60	601.50	599.50	585.00	22.196	585.00	22.721
61	585.00	578.50	550.00	22.478	550.00	22.930
62	550.00	547.00	538.50	22.891	538.50	23.131
63	538.50	522.50	508.00	15.849	508.00	17.397
64	508.00	444.00	441.50	15.121	441.50	15.175
65	441.50	432.50	430.50	15.049	430.50	15.104
66	430.50	426.50	416.00	15.022	416.00	15.111
67	416.00	397.00	393.50	14.906	393.50	14.998
68	393.50	392.00	386.00	14.954	386.00	15.008
69	386.00	377.50	368.50	14.928	368.50	15.092
70	368.50	364.00	227.50	15.075	227.50	32.157
71	227.50	217.00	201.50	29.567	201.50	33.479
72	201.50	197.00	190.00	32.919	190.00	34.781

ﾃﾞｰﾀﾘｽﾄ
nm	%T
1100.00	5.133
1099.50	32.817
1099.00	42.612
1098.50	52.042
1098.00	33.808
1097.50	13.272
1097.00	8.704
1096.50	-23.742
1096.00	-8.670
1095.50	1.342
1095.00	25.762
1094.50	63.893
1094.00	54.488
1093.50	133.027
1093.00	106.468
1092.50	51.249
1092.00	-12.842
1091.50	-67.268
1091.00	-113.364
1090.50	-117.508
1090.00	-71.161
1089.50	-38.990
1089.00	32.153
1088.50	67.672
1088.00	72.935
1087.50	57.894
1087.00	-15.231
1086.50	49.831
1086.00	48.578
1085.50	36.539
1085.00	30.691
1084.50	11.874
1084.00	-4.540
1083.50	-15.286
1083.00	-27.003
1082.50	-26.656
1082.00	4.112
1081.50	23.376
1081.00	40.460
1080.50	40.284
1080.00	23.859
1079.50	23.866
1079.00	19.588
1078.50	8.439
1078.00	5.439
1077.50	7.259
1077.00	13.733
1076.50	27.779
1076.00	41.369
1075.50	48.371
1075.00	46.447
1074.50	29.986
1074.00	22.466
1073.50	17.137
1073.00	18.128
1072.50	17.536
1072.00	29.993
1071.50	27.426
1071.00	25.107
1070.50	20.148
1070.00	10.162
1069.50	-2.570
1069.00	-6.785
1068.50	-5.042
1068.00	4.716
1067.50	10.248
1067.00	17.703
1066.50	23.326
1066.00	22.522
1065.50	17.395
1065.00	19.853
1064.50	17.992
1064.00	16.945
1063.50	17.142
1063.00	18.971
1062.50	19.287
1062.00	21.010
1061.50	19.898
1061.00	22.142
1060.50	18.782
1060.00	18.175
1059.50	16.995
1059.00	15.468
1058.50	14.153
1058.00	16.395
1057.50	17.481
1057.00	19.494
1056.50	19.157
1056.00	18.915
1055.50	17.901
1055.00	18.448
1054.50	18.016
1054.00	18.849
1053.50	17.677
1053.00	17.190
1052.50	16.784
1052.00	16.681
1051.50	16.104
1051.00	15.790
1050.50	15.823
1050.00	16.688
1049.50	16.489
1049.00	16.943
1048.50	16.609
1048.00	16.889
1047.50	17.518
1047.00	18.551
1046.50	18.777
1046.00	18.824
1045.50	18.454
1045.00	18.295
1044.50	17.742
1044.00	17.347
1043.50	17.708
1043.00	18.390
1042.50	18.816
1042.00	19.094
1041.50	18.642
1041.00	17.792
1040.50	17.341
1040.00	17.012
1039.50	16.679
1039.00	17.057
1038.50	17.529
1038.00	17.709
1037.50	17.400
1037.00	16.983
1036.50	16.573
1036.00	16.254
1035.50	15.891
1035.00	15.840
1034.50	15.541
1034.00	15.567
1033.50	15.808
1033.00	15.902
1032.50	15.968
1032.00	16.320
1031.50	16.654
1031.00	16.877
1030.50	17.364
1030.00	17.617
1029.50	18.030
1029.00	18.475
1028.50	18.964
1028.00	19.093
1027.50	19.393
1027.00	19.788
1026.50	20.275
1026.00	20.612
1025.50	21.080
1025.00	21.494
1024.50	21.470
1024.00	21.370
1023.50	21.316
1023.00	20.774
1022.50	20.228
1022.00	19.600
1021.50	19.187
1021.00	18.550
1020.50	18.204
1020.00	18.115
1019.50	18.070
1019.00	18.101
1018.50	18.320
1018.00	18.483
1017.50	18.486
1017.00	18.520
1016.50	18.760
1016.00	18.745
1015.50	18.629
1015.00	18.354
1014.50	18.268
1014.00	18.118
1013.50	17.939
1013.00	17.942
1012.50	17.942
1012.00	18.032
1011.50	18.046
1011.00	18.093
1010.50	18.148
1010.00	18.047
1009.50	18.154
1009.00	18.214
1008.50	18.285
1008.00	18.258
1007.50	18.356
1007.00	18.374
1006.50	18.307
1006.00	18.216
1005.50	18.231
1005.00	18.284
1004.50	18.217
1004.00	18.234
1003.50	18.470
1003.00	18.558
1002.50	18.605
1002.00	18.542
1001.50	18.391
1001.00	18.142
1000.50	18.080
1000.00	18.135
999.50	18.212
999.00	18.298
998.50	18.360
998.00	18.445
997.50	18.465
997.00	18.434
996.50	18.511
996.00	18.496
995.50	18.382
995.00	18.423
994.50	18.406
994.00	18.366
993.50	18.246
993.00	18.211
992.50	18.101
992.00	18.171
991.50	18.216
991.00	18.152
990.50	18.198
990.00	18.265
989.50	18.495
989.00	18.579
988.50	18.574
988.00	18.463
987.50	18.403
987.00	18.389
986.50	18.278
986.00	18.235
985.50	18.145
985.00	18.224
984.50	18.233
984.00	18.266
983.50	18.288
983.00	18.124
982.50	18.208
982.00	18.221
981.50	18.326
981.00	18.334
980.50	18.367
980.00	18.307
979.50	18.293
979.00	18.224
978.50	18.160
978.00	18.278
977.50	18.351
977.00	18.480
976.50	18.592
976.00	18.537
975.50	18.444
975.00	18.266
974.50	18.198
974.00	18.243
973.50	18.283
973.00	18.272
972.50	18.319
972.00	18.290
971.50	18.228
971.00	18.297
970.50	18.332
970.00	18.322
969.50	18.387
969.00	18.499
968.50	18.625
968.00	18.605
967.50	18.508
967.00	18.510
966.50	18.417
966.00	18.355
965.50	18.332
965.00	18.251
964.50	18.221
964.00	18.311
963.50	18.397
963.00	18.483
962.50	18.577
962.00	18.582
961.50	18.644
961.00	18.640
960.50	18.489
960.00	18.514
959.50	18.463
959.00	18.419
958.50	18.387
958.00	18.370
957.50	18.367
957.00	18.400
956.50	18.391
956.00	18.352
955.50	18.411
955.00	18.396
954.50	18.439
954.00	18.475
953.50	18.391
953.00	18.405
952.50	18.406
952.00	18.468
951.50	18.432
951.00	18.368
950.50	18.296
950.00	18.387
949.50	18.387
949.00	18.409
948.50	18.375
948.00	18.443
947.50	18.430
947.00	18.429
946.50	18.323
946.00	18.311
945.50	18.372
945.00	18.447
944.50	18.418
944.00	18.429
943.50	18.335
943.00	18.333
942.50	18.326
942.00	18.529
941.50	18.492
941.00	18.614
940.50	18.701
940.00	18.715
939.50	18.617
939.00	18.576
938.50	18.569
938.00	18.547
937.50	18.460
937.00	18.600
936.50	18.587
936.00	18.565
935.50	18.531
935.00	18.564
934.50	18.675
934.00	18.710
933.50	18.796
933.00	18.755
932.50	18.701
932.00	18.719
931.50	18.763
931.00	18.843
930.50	18.861
930.00	18.989
929.50	19.064
929.00	19.012
928.50	18.906
928.00	18.684
927.50	18.565
927.00	18.452
926.50	18.383
926.00	18.261
925.50	18.349
925.00	18.313
924.50	18.466
924.00	18.540
923.50	18.598
923.00	18.660
922.50	18.760
922.00	18.840
921.50	18.880
921.00	18.900
920.50	18.821
920.00	18.881
919.50	18.794
919.00	18.582
918.50	18.515
918.00	18.305
917.50	18.427
917.00	18.580
916.50	18.712
916.00	18.903
915.50	18.861
915.00	18.855
914.50	18.798
914.00	18.753
913.50	18.616
913.00	18.722
912.50	18.809
912.00	18.849
911.50	18.774
911.00	18.555
910.50	18.456
910.00	18.466
909.50	18.447
909.00	18.690
908.50	18.822
908.00	18.966
907.50	19.183
907.00	19.333
906.50	19.286
906.00	19.226
905.50	19.179
905.00	19.078
904.50	18.921
904.00	18.820
903.50	18.726
903.00	18.642
902.50	18.650
902.00	18.886
901.50	18.946
901.00	18.897
900.50	18.812
900.00	18.666
899.50	18.597
899.00	18.520
898.50	18.646
898.00	18.736
897.50	18.883
897.00	19.028
896.50	19.080
896.00	19.010
895.50	18.854
895.00	18.729
894.50	18.620
894.00	18.732
893.50	18.904
893.00	19.094
892.50	19.292
892.00	19.323
891.50	19.283
891.00	19.075
890.50	18.984
890.00	18.932
889.50	18.798
889.00	18.878
888.50	18.959
888.00	19.089
887.50	19.105
887.00	19.067
886.50	18.967
886.00	18.895
885.50	19.002
885.00	19.104
884.50	19.316
884.00	19.253
883.50	19.377
883.00	19.541
882.50	19.425
882.00	19.287
881.50	19.129
881.00	19.118
880.50	19.033
880.00	19.038
879.50	19.125
879.00	19.183
878.50	19.318
878.00	19.338
877.50	19.309
877.00	19.114
876.50	19.135
876.00	19.094
875.50	19.009
875.00	19.045
874.50	19.117
874.00	19.156
873.50	19.186
873.00	19.228
872.50	19.208
872.00	19.259
871.50	19.336
871.00	19.388
870.50	19.237
870.00	19.200
869.50	19.105
869.00	18.907
868.50	18.734
868.00	18.764
867.50	18.855
867.00	19.026
866.50	19.131
866.00	19.352
865.50	19.321
865.00	19.419
864.50	19.421
864.00	19.343
863.50	19.317
863.00	19.368
862.50	19.466
862.00	19.547
861.50	19.493
861.00	19.423
860.50	19.333
860.00	19.438
859.50	19.272
859.00	19.281
858.50	19.183
858.00	19.276
857.50	19.347
857.00	19.375
856.50	19.552
856.00	19.599
855.50	19.661
855.00	19.665
854.50	19.623
854.00	19.437
853.50	19.246
853.00	19.234
852.50	19.298
852.00	19.417
851.50	19.544
851.00	19.686
850.50	19.757
850.00	19.679
849.50	19.697
849.00	19.604
848.50	19.494
848.00	19.465
847.50	19.569
847.00	19.538
846.50	19.497
846.00	19.454
845.50	19.528
845.00	19.511
844.50	19.569
844.00	19.625
843.50	19.678
843.00	19.693
842.50	19.756
842.00	19.677
841.50	19.578
841.00	19.682
840.50	19.740
840.00	19.706
839.50	19.762
839.00	19.733
838.50	19.656
838.00	19.566
837.50	19.540
837.00	19.512
836.50	19.541
836.00	19.677
835.50	19.720
835.00	19.703
834.50	19.629
834.00	19.755
833.50	19.841
833.00	19.802
832.50	19.943
832.00	19.946
831.50	19.853
831.00	19.828
830.50	19.685
830.00	19.662
829.50	19.649
829.00	19.830
828.50	19.905
828.00	19.964
827.50	20.013
827.00	19.961
826.50	19.997
826.00	20.110
825.50	20.242
825.00	20.241
824.50	20.170
824.00	20.169
823.50	19.950
823.00	19.989
822.50	19.887
822.00	19.921
821.50	19.925
821.00	19.998
820.50	20.109
820.00	20.023
819.50	19.960
819.00	19.985
818.50	19.988
818.00	20.048
817.50	20.072
817.00	20.109
816.50	20.065
816.00	20.174
815.50	20.186
815.00	20.235
814.50	20.188
814.00	20.160
813.50	20.120
813.00	20.094
812.50	20.053
812.00	20.081
811.50	20.126
811.00	20.231
810.50	20.295
810.00	20.332
809.50	20.352
809.00	20.315
808.50	20.241
808.00	20.271
807.50	20.236
807.00	20.183
806.50	20.216
806.00	20.231
805.50	20.239
805.00	20.283
804.50	20.312
804.00	20.308
803.50	20.337
803.00	20.416
802.50	20.473
802.00	20.504
801.50	20.479
801.00	20.539
800.50	20.517
800.00	20.419
799.50	20.426
799.00	20.358
798.50	20.367
798.00	20.363
797.50	20.354
797.00	20.320
796.50	20.329
796.00	20.352
795.50	20.351
795.00	20.376
794.50	20.399
794.00	20.474
793.50	20.515
793.00	20.505
792.50	20.493
792.00	20.491
791.50	20.456
791.00	20.484
790.50	20.455
790.00	20.428
789.50	20.459
789.00	20.439
788.50	20.429
788.00	20.406
787.50	20.411
787.00	20.416
786.50	20.472
786.00	20.559
785.50	20.595
785.00	20.593
784.50	20.576
784.00	20.582
783.50	20.557
783.00	20.496
782.50	20.495
782.00	20.552
781.50	20.602
781.00	20.652
780.50	20.687
780.00	20.672
779.50	20.650
779.00	20.634
778.50	20.602
778.00	20.534
777.50	20.491
777.00	20.478
776.50	20.570
776.00	20.609
775.50	20.613
775.00	20.682
774.50	20.724
774.00	20.767
773.50	20.765
773.00	20.741
772.50	20.699
772.00	20.645
771.50	20.627
771.00	20.627
770.50	20.618
770.00	20.647
769.50	20.716
769.00	20.768
768.50	20.761
768.00	20.748
767.50	20.719
767.00	20.685
766.50	20.619
766.00	20.589
765.50	20.627
765.00	20.653
764.50	20.682
764.00	20.719
763.50	20.763
763.00	20.788
762.50	20.788
762.00	20.762
761.50	20.744
761.00	20.731
760.50	20.741
760.00	20.793
759.50	20.831
759.00	20.868
758.50	20.907
758.00	20.881
757.50	20.832
757.00	20.773
756.50	20.737
756.00	20.729
755.50	20.741
755.00	20.782
754.50	20.836
754.00	20.836
753.50	20.859
753.00	20.869
752.50	20.852
752.00	20.867
751.50	20.862
751.00	20.838
750.50	20.865
750.00	20.876
749.50	20.946
749.00	21.009
748.50	21.054
748.00	21.132
747.50	21.202
747.00	21.251
746.50	21.347
746.00	21.482
745.50	21.608
745.00	21.742
744.50	21.840
744.00	21.886
743.50	21.881
743.00	21.830
742.50	21.798
742.00	21.743
741.50	21.671
741.00	21.594
740.50	21.489
740.00	21.369
739.50	21.251
739.00	21.180
738.50	21.139
738.00	21.150
737.50	21.173
737.00	21.200
736.50	21.208
736.00	21.212
735.50	21.190
735.00	21.190
734.50	21.186
734.00	21.212
733.50	21.245
733.00	21.236
732.50	21.229
732.00	21.236
731.50	21.211
731.00	21.222
730.50	21.216
730.00	21.231
729.50	21.256
729.00	21.290
728.50	21.299
728.00	21.308
727.50	21.269
727.00	21.266
726.50	21.289
726.00	21.266
725.50	21.243
725.00	21.256
724.50	21.266
724.00	21.264
723.50	21.258
723.00	21.234
722.50	21.220
722.00	21.229
721.50	21.255
721.00	21.297
720.50	21.308
720.00	21.317
719.50	21.329
719.00	21.327
718.50	21.307
718.00	21.270
717.50	21.268
717.00	21.248
716.50	21.279
716.00	21.277
715.50	21.303
715.00	21.334
714.50	21.321
714.00	21.344
713.50	21.340
713.00	21.325
712.50	21.304
712.00	21.298
711.50	21.320
711.00	21.321
710.50	21.345
710.00	21.348
709.50	21.360
709.00	21.346
708.50	21.361
708.00	21.362
707.50	21.364
707.00	21.393
706.50	21.395
706.00	21.396
705.50	21.379
705.00	21.372
704.50	21.365
704.00	21.370
703.50	21.378
703.00	21.381
702.50	21.388
702.00	21.384
701.50	21.386
701.00	21.356
700.50	21.377
700.00	21.415
699.50	21.432
699.00	21.448
698.50	21.451
698.00	21.460
697.50	21.456
697.00	21.449
696.50	21.450
696.00	21.460
695.50	21.466
695.00	21.450
694.50	21.442
694.00	21.438
693.50	21.465
693.00	21.505
692.50	21.526
692.00	21.544
691.50	21.528
691.00	21.496
690.50	21.469
690.00	21.442
689.50	21.448
689.00	21.479
688.50	21.508
688.00	21.510
687.50	21.512
687.00	21.495
686.50	21.495
686.00	21.522
685.50	21.532
685.00	21.550
684.50	21.555
684.00	21.529
683.50	21.499
683.00	21.468
682.50	21.447
682.00	21.453
681.50	21.451
681.00	21.484
680.50	21.502
680.00	21.507
679.50	21.523
679.00	21.542
678.50	21.545
678.00	21.544
677.50	21.548
677.00	21.552
676.50	21.552
676.00	21.557
675.50	21.576
675.00	21.604
674.50	21.598
674.00	21.602
673.50	21.577
673.00	21.572
672.50	21.559
672.00	21.553
671.50	21.551
671.00	21.549
670.50	21.565
670.00	21.609
669.50	21.630
669.00	21.647
668.50	21.660
668.00	21.670
667.50	21.669
667.00	21.657
666.50	21.644
666.00	21.650
665.50	21.646
665.00	21.658
664.50	21.651
664.00	21.628
663.50	21.607
663.00	21.610
662.50	21.613
662.00	21.625
661.50	21.637
661.00	21.655
660.50	21.700
660.00	21.719
659.50	21.738
659.00	21.755
658.50	21.763
658.00	21.765
657.50	21.743
657.00	21.713
656.50	21.677
656.00	21.673
655.50	21.682
655.00	21.693
654.50	21.700
654.00	21.712
653.50	21.738
653.00	21.727
652.50	21.731
652.00	21.736
651.50	21.732
651.00	21.754
650.50	21.759
650.00	21.765
649.50	21.771
649.00	21.785
648.50	21.780
648.00	21.792
647.50	21.796
647.00	21.785
646.50	21.793
646.00	21.796
645.50	21.806
645.00	21.825
644.50	21.810
644.00	21.825
643.50	21.825
643.00	21.834
642.50	21.844
642.00	21.847
641.50	21.842
641.00	21.869
640.50	21.889
640.00	21.871
639.50	21.868
639.00	21.865
638.50	21.870
638.00	21.895
637.50	21.900
637.00	21.922
636.50	21.929
636.00	21.953
635.50	21.957
635.00	21.944
634.50	21.929
634.00	21.914
633.50	21.893
633.00	21.898
632.50	21.893
632.00	21.896
631.50	21.922
631.00	21.935
630.50	21.935
630.00	21.936
629.50	21.936
629.00	21.946
628.50	21.958
628.00	21.969
627.50	21.977
627.00	21.982
626.50	21.972
626.00	21.983
625.50	21.990
625.00	21.994
624.50	22.008
624.00	22.016
623.50	22.019
623.00	22.008
622.50	22.004
622.00	21.998
621.50	22.023
621.00	22.038
620.50	22.044
620.00	22.063
619.50	22.065
619.00	22.073
618.50	22.082
618.00	22.087
617.50	22.093
617.00	22.089
616.50	22.092
616.00	22.085
615.50	22.086
615.00	22.086
614.50	22.108
614.00	22.122
613.50	22.144
613.00	22.146
612.50	22.144
612.00	22.158
611.50	22.169
611.00	22.163
610.50	22.162
610.00	22.152
609.50	22.150
609.00	22.142
608.50	22.144
608.00	22.155
607.50	22.166
607.00	22.178
606.50	22.211
606.00	22.229
605.50	22.242
605.00	22.256
604.50	22.266
604.00	22.262
603.50	22.265
603.00	22.266
602.50	22.288
602.00	22.298
601.50	22.299
601.00	22.273
600.50	22.250
600.00	22.228
599.50	22.196
599.00	22.201
598.50	22.208
598.00	22.233
597.50	22.266
597.00	22.283
596.50	22.311
596.00	22.314
595.50	22.315
595.00	22.318
594.50	22.340
594.00	22.346
593.50	22.358
593.00	22.362
592.50	22.365
592.00	22.409
591.50	22.436
591.00	22.469
590.50	22.496
590.00	22.502
589.50	22.524
589.00	22.548
588.50	22.557
588.00	22.569
587.50	22.597
587.00	22.637
586.50	22.664
586.00	22.680
585.50	22.699
585.00	22.721
584.50	22.715
584.00	22.689
583.50	22.644
583.00	22.581
582.50	22.539
582.00	22.509
581.50	22.486
581.00	22.475
580.50	22.482
580.00	22.483
579.50	22.480
579.00	22.485
578.50	22.478
578.00	22.486
577.50	22.481
577.00	22.495
576.50	22.498
576.00	22.507
575.50	22.527
575.00	22.539
574.50	22.552
574.00	22.553
573.50	22.557
573.00	22.539
572.50	22.530
572.00	22.542
571.50	22.558
571.00	22.570
570.50	22.582
570.00	22.592
569.50	22.579
569.00	22.586
568.50	22.591
568.00	22.610
567.50	22.627
567.00	22.637
566.50	22.639
566.00	22.647
565.50	22.648
565.00	22.670
564.50	22.685
564.00	22.692
563.50	22.721
563.00	22.717
562.50	22.724
562.00	22.738
561.50	22.719
561.00	22.725
560.50	22.732
560.00	22.735
559.50	22.740
559.00	22.741
558.50	22.752
558.00	22.768
557.50	22.766
557.00	22.771
556.50	22.772
556.00	22.769
555.50	22.787
555.00	22.807
554.50	22.802
554.00	22.814
553.50	22.828
553.00	22.844
552.50	22.858
552.00	22.856
551.50	22.872
551.00	22.897
550.50	22.924
550.00	22.930
549.50	22.923
549.00	22.913
548.50	22.918
548.00	22.912
547.50	22.899
547.00	22.891
546.50	22.902
546.00	22.933
545.50	22.969
545.00	22.988
544.50	23.012
544.00	23.031
543.50	23.047
543.00	23.037
542.50	23.050
542.00	23.035
541.50	23.046
541.00	23.065
540.50	23.072
540.00	23.077
539.50	23.090
539.00	23.109
538.50	23.131
538.00	23.122
537.50	23.122
537.00	23.109
536.50	23.084
536.00	23.039
535.50	23.009
535.00	22.953
534.50	22.894
534.00	22.816
533.50	22.739
533.00	22.652
532.50	22.521
532.00	22.358
531.50	22.158
531.00	21.910
530.50	21.631
530.00	21.307
529.50	21.021
529.00	20.702
528.50	20.340
528.00	19.896
527.50	19.375
527.00	18.773
526.50	18.158
526.00	17.573
525.50	17.046
525.00	16.629
524.50	16.324
524.00	16.115
523.50	15.981
523.00	15.870
522.50	15.849
522.00	15.866
521.50	15.907
521.00	15.944
520.50	15.993
520.00	16.047
519.50	16.095
519.00	16.150
518.50	16.206
518.00	16.276
517.50	16.344
517.00	16.404
516.50	16.469
516.00	16.539
515.50	16.608
515.00	16.690
514.50	16.760
514.00	16.831
513.50	16.890
513.00	16.944
512.50	16.991
512.00	17.056
511.50	17.116
511.00	17.186
510.50	17.240
510.00	17.293
509.50	17.337
509.00	17.371
508.50	17.394
508.00	17.397
507.50	17.382
507.00	17.368
506.50	17.341
506.00	17.307
505.50	17.270
505.00	17.237
504.50	17.187
504.00	17.133
503.50	17.055
503.00	16.970
502.50	16.887
502.00	16.809
501.50	16.765
501.00	16.731
500.50	16.708
500.00	16.678
499.50	16.638
499.00	16.597
498.50	16.553
498.00	16.514
497.50	16.493
497.00	16.486
496.50	16.480
496.00	16.485
495.50	16.485
495.00	16.466
494.50	16.454
494.00	16.442
493.50	16.437
493.00	16.435
492.50	16.417
492.00	16.408
491.50	16.386
491.00	16.354
490.50	16.328
490.00	16.305
489.50	16.284
489.00	16.275
488.50	16.259
488.00	16.237
487.50	16.204
487.00	16.172
486.50	16.131
486.00	16.102
485.50	16.065
485.00	16.038
484.50	16.017
484.00	16.007
483.50	15.997
483.00	15.981
482.50	15.968
482.00	15.940
481.50	15.913
481.00	15.886
480.50	15.850
480.00	15.827
479.50	15.786
479.00	15.763
478.50	15.750
478.00	15.735
477.50	15.702
477.00	15.682
476.50	15.656
476.00	15.636
475.50	15.627
475.00	15.609
474.50	15.602
474.00	15.591
473.50	15.579
473.00	15.581
472.50	15.565
472.00	15.546
471.50	15.530
471.00	15.517
470.50	15.511
470.00	15.517
469.50	15.517
469.00	15.509
468.50	15.504
468.00	15.486
467.50	15.474
467.00	15.457
466.50	15.436
466.00	15.415
465.50	15.401
465.00	15.402
464.50	15.397
464.00	15.377
463.50	15.371
463.00	15.354
462.50	15.344
462.00	15.336
461.50	15.339
461.00	15.326
460.50	15.326
460.00	15.333
459.50	15.342
459.00	15.336
458.50	15.335
458.00	15.331
457.50	15.316
457.00	15.306
456.50	15.304
456.00	15.291
455.50	15.284
455.00	15.287
454.50	15.286
454.00	15.277
453.50	15.264
453.00	15.255
452.50	15.254
452.00	15.242
451.50	15.241
451.00	15.243
450.50	15.240
450.00	15.240
449.50	15.225
449.00	15.222
448.50	15.210
448.00	15.203
447.50	15.206
447.00	15.210
446.50	15.184
446.00	15.160
445.50	15.153
445.00	15.136
444.50	15.126
444.00	15.121
443.50	15.126
443.00	15.144
442.50	15.148
442.00	15.159
441.50	15.175
441.00	15.156
440.50	15.158
440.00	15.155
439.50	15.138
439.00	15.130
438.50	15.110
438.00	15.094
437.50	15.094
437.00	15.095
436.50	15.091
436.00	15.090
435.50	15.079
435.00	15.067
434.50	15.077
434.00	15.076
433.50	15.070
433.00	15.058
432.50	15.049
432.00	15.068
431.50	15.084
431.00	15.093
430.50	15.104
430.00	15.103
429.50	15.099
429.00	15.084
428.50	15.057
428.00	15.047
427.50	15.032
427.00	15.028
426.50	15.022
426.00	15.030
425.50	15.030
425.00	15.034
424.50	15.031
424.00	15.040
423.50	15.051
423.00	15.060
422.50	15.058
422.00	15.062
421.50	15.068
421.00	15.076
420.50	15.087
420.00	15.078
419.50	15.073
419.00	15.079
418.50	15.084
418.00	15.092
417.50	15.083
417.00	15.092
416.50	15.098
416.00	15.111
415.50	15.106
415.00	15.106
414.50	15.106
414.00	15.088
413.50	15.072
413.00	15.047
412.50	15.025
412.00	15.019
411.50	15.032
411.00	15.039
410.50	15.038
410.00	15.035
409.50	15.047
409.00	15.033
408.50	15.018
408.00	15.014
407.50	15.002
407.00	14.986
406.50	14.978
406.00	14.979
405.50	14.964
405.00	14.945
404.50	14.948
404.00	14.956
403.50	14.955
403.00	14.954
402.50	14.969
402.00	14.953
401.50	14.937
401.00	14.941
400.50	14.938
400.00	14.925
399.50	14.940
399.00	14.958
398.50	14.955
398.00	14.925
397.50	14.914
397.00	14.906
396.50	14.909
396.00	14.917
395.50	14.950
395.00	14.973
394.50	14.980
394.00	14.994
393.50	14.998
393.00	14.972
392.50	14.957
392.00	14.954
391.50	14.956
391.00	14.956
390.50	14.965
390.00	14.976
389.50	14.965
389.00	14.958
388.50	14.967
388.00	14.963
387.50	14.958
387.00	14.973
386.50	14.994
386.00	15.008
385.50	15.002
385.00	14.993
384.50	14.988
384.00	14.987
383.50	14.989
383.00	14.986
382.50	14.962
382.00	14.955
381.50	14.977
381.00	14.971
380.50	14.978
380.00	14.978
379.50	14.970
379.00	14.964
378.50	14.936
378.00	14.932
377.50	14.928
377.00	14.929
376.50	14.959
376.00	14.984
375.50	14.984
375.00	14.978
374.50	14.995
374.00	14.993
373.50	14.991
373.00	14.985
372.50	14.977
372.00	14.994
371.50	14.991
371.00	15.016
370.50	15.049
370.00	15.051
369.50	15.067
369.00	15.088
368.50	15.092
368.00	15.091
367.50	15.092
367.00	15.078
366.50	15.087
366.00	15.088
365.50	15.081
365.00	15.087
364.50	15.078
364.00	15.075
363.50	15.094
363.00	15.090
362.50	15.087
362.00	15.088
361.50	15.102
361.00	15.125
360.50	15.151
360.00	15.138
359.50	15.141
359.00	15.137
358.50	15.135
358.00	15.140
357.50	15.158
357.00	15.159
356.50	15.198
356.00	15.216
355.50	15.215
355.00	15.232
354.50	15.227
354.00	15.195
353.50	15.202
353.00	15.204
352.50	15.215
352.00	15.231
351.50	15.251
351.00	15.278
350.50	15.308
350.00	15.318
349.50	15.349
349.00	15.360
348.50	15.338
348.00	15.354
347.50	15.359
347.00	15.365
346.50	15.397
346.00	15.415
345.50	15.456
345.00	15.485
344.50	15.493
344.00	15.523
343.50	15.518
343.00	15.610
342.50	15.554
342.00	15.523
341.50	15.553
341.00	15.704
340.50	15.954
340.00	16.296
339.50	16.657
339.00	16.955
338.50	17.200
338.00	17.326
337.50	17.330
337.00	17.289
336.50	17.211
336.00	17.286
335.50	17.308
335.00	17.339
334.50	17.351
334.00	17.349
333.50	17.348
333.00	17.357
332.50	17.380
332.00	17.389
331.50	17.407
331.00	17.428
330.50	17.449
330.00	17.472
329.50	17.491
329.00	17.489
328.50	17.512
328.00	17.515
327.50	17.522
327.00	17.520
326.50	17.505
326.00	17.504
325.50	17.520
325.00	17.533
324.50	17.549
324.00	17.582
323.50	17.614
323.00	17.615
322.50	17.634
322.00	17.642
321.50	17.669
321.00	17.699
320.50	17.744
320.00	17.775
319.50	17.806
319.00	17.844
318.50	17.853
318.00	17.856
317.50	17.875
317.00	17.905
316.50	17.941
316.00	17.970
315.50	17.994
315.00	18.025
314.50	18.046
314.00	18.091
313.50	18.105
313.00	18.115
312.50	18.138
312.00	18.184
311.50	18.225
311.00	18.249
310.50	18.271
310.00	18.296
309.50	18.313
309.00	18.346
308.50	18.360
308.00	18.399
307.50	18.424
307.00	18.475
306.50	18.514
306.00	18.553
305.50	18.596
305.00	18.628
304.50	18.669
304.00	18.706
303.50	18.750
303.00	18.795
302.50	18.819
302.00	18.847
301.50	18.883
301.00	18.916
300.50	18.964
300.00	18.980
299.50	19.012
299.00	19.047
298.50	19.092
298.00	19.140
297.50	19.186
297.00	19.233
296.50	19.281
296.00	19.327
295.50	19.359
295.00	19.387
294.50	19.431
294.00	19.469
293.50	19.550
293.00	19.607
292.50	19.651
292.00	19.706
291.50	19.740
291.00	19.771
290.50	19.801
290.00	19.853
289.50	19.892
289.00	19.943
288.50	20.018
288.00	20.094
287.50	20.167
287.00	20.232
286.50	20.291
286.00	20.363
285.50	20.420
285.00	20.493
284.50	20.563
284.00	20.638
283.50	20.717
283.00	20.803
282.50	20.865
282.00	20.920
281.50	20.978
281.00	21.057
280.50	21.139
280.00	21.225
279.50	21.279
279.00	21.349
278.50	21.434
278.00	21.506
277.50	21.581
277.00	21.669
276.50	21.762
276.00	21.862
275.50	21.961
275.00	22.047
274.50	22.112
274.00	22.207
273.50	22.289
273.00	22.379
272.50	22.458
272.00	22.542
271.50	22.647
271.00	22.718
270.50	22.804
270.00	22.874
269.50	22.936
269.00	23.022
268.50	23.114
268.00	23.206
267.50	23.304
267.00	23.429
266.50	23.521
266.00	23.611
265.50	23.700
265.00	23.803
264.50	23.904
264.00	24.001
263.50	24.113
263.00	24.199
262.50	24.284
262.00	24.375
261.50	24.462
261.00	24.560
260.50	24.636
260.00	24.722
259.50	24.814
259.00	24.921
258.50	25.018
258.00	25.126
257.50	25.217
257.00	25.307
256.50	25.393
256.00	25.438
255.50	25.476
255.00	25.504
254.50	25.538
254.00	25.615
253.50	25.675
253.00	25.757
252.50	25.832
252.00	25.929
251.50	25.993
251.00	26.055
250.50	26.104
250.00	26.167
249.50	26.243
249.00	26.316
248.50	26.404
248.00	26.482
247.50	26.566
247.00	26.691
246.50	26.820
246.00	26.980
245.50	27.139
245.00	27.358
244.50	27.525
244.00	27.684
243.50	27.795
243.00	27.881
242.50	27.963
242.00	28.083
241.50	28.214
241.00	28.383
240.50	28.526
240.00	28.679
239.50	28.807
239.00	28.937
238.50	29.042
238.00	29.202
237.50	29.374
237.00	29.579
236.50	29.776
236.00	29.972
235.50	30.153
235.00	30.357
234.50	30.537
234.00	30.738
233.50	30.936
233.00	31.114
232.50	31.245
232.00	31.380
231.50	31.483
231.00	31.596
230.50	31.734
230.00	31.860
229.50	31.976
229.00	32.085
228.50	32.096
228.00	32.131
227.50	32.157
227.00	32.127
226.50	32.085
226.00	32.047
225.50	31.968
225.00	31.845
224.50	31.660
224.00	31.474
223.50	31.314
223.00	31.114
222.50	30.941
222.00	30.783
221.50	30.565
221.00	30.379
220.50	30.198
220.00	30.042
219.50	29.858
219.00	29.744
218.50	29.666
218.00	29.633
217.50	29.606
217.00	29.567
216.50	29.579
216.00	29.584
215.50	29.623
215.00	29.675
214.50	29.792
214.00	29.889
213.50	29.992
213.00	30.135
212.50	30.257
212.00	30.367
211.50	30.490
211.00	30.635
210.50	30.797
210.00	30.960
209.50	31.173
209.00	31.353
208.50	31.559
208.00	31.704
207.50	31.864
207.00	31.992
206.50	32.124
206.00	32.247
205.50	32.435
205.00	32.569
204.50	32.699
204.00	32.919
203.50	33.128
203.00	33.262
202.50	33.388
202.00	33.458
201.50	33.479
201.00	33.436
200.50	33.398
200.00	33.383
199.50	33.317
199.00	33.205
198.50	33.166
198.00	33.070
197.50	32.947
197.00	32.919
196.50	32.976
196.00	33.056
195.50	33.071
195.00	33.142
194.50	33.185
194.00	33.065
193.50	33.076
193.00	33.219
192.50	33.468
192.00	33.796
191.50	34.169
191.00	34.473
190.50	34.688
190.00	34.781

