ｻﾝﾌﾟﾙ:	STO_190-1100_600_1_05
ﾌｧｲﾙ名:	STO_190-1100_600_1_05.UDS
分析日時:	'13:29:45, 09/20/2024
ｵﾍﾟﾚｰﾀ:	OB
ｺﾒﾝﾄ:	'

光度計
ﾓﾃﾞﾙ:	U-3900形分光光度計
ｼﾘｱﾙ No.:	'3004-010
ROM Ver.:	2J25300 07

装置条件
測定ﾓｰﾄﾞ:	波長ｽｷｬﾝ
ﾃﾞｰﾀﾓｰﾄﾞ:	%T
開始波長:	1100.00 nm
終了波長:	190.00 nm
ｽｷｬﾝｽﾋﾟｰﾄﾞ:	600 nm/min
ｻﾝﾌﾟﾘﾝｸﾞ間隔:	0.50 nm
初期待ち時間:	0 s
繰り返し周期:	0.0 min
測定回数:	1
測定前ｵｰﾄｾﾞﾛ:	Off
ｽﾘｯﾄ:	1 nm
ﾎﾄﾏﾙ電圧:	自動制御
光源切換ﾓｰﾄﾞ:	自動切換
光源切換波長:	340.00 nm
ﾍﾞｰｽﾗｲﾝ設定:	ﾕｰｻﾞ 1
高分解能測定:	Off
D2ﾗﾝﾌﾟ:	On
WIﾗﾝﾌﾟ:	On
R/S反転:	Off
ｾﾙ長:	10.0 mm

ﾋﾟｰｸ検出
検出方法:	Rectangular
感度:	1
しきい値:	0.0100

ﾋﾟｰｸ
ﾋﾟｰｸ No.	開始 (nm)	ﾋﾟｰｸ (nm)	終了 (nm)	高さ (%T)	ﾊﾞﾚｰ (nm)	ﾊﾞﾚｰ (%T)
1	1100.00	1099.00	1096.50	-495.643	1096.50	521.991
2	1096.50	1090.50	1087.00	-28.714	1087.00	27.792
3	1087.00	1082.00	1076.50	-82.568	1076.50	96.822
4	1076.50	1074.00	1068.00	-7.015	1068.00	125.234
5	1068.00	1066.00	1063.50	56.627	1063.50	102.916
6	1063.50	1062.00	1056.50	53.155	1056.50	79.473
7	1056.50	1055.50	1053.00	62.835	1053.00	85.678
8	1053.00	1048.50	1046.00	66.114	1046.00	72.839
9	1046.00	1044.50	1043.00	67.302	1043.00	72.499
10	1043.00	1040.50	1038.50	66.226	1038.50	73.243
11	1038.50	1035.50	1031.50	66.862	1031.50	70.169
12	1031.50	1030.50	1028.00	67.936	1028.00	72.091
13	1028.00	1022.00	1020.00	69.537	1020.00	70.892
14	1020.00	1017.00	1013.50	68.612	1013.50	70.260
15	1013.50	1009.50	1006.50	68.665	1006.50	69.771
16	1006.50	1003.50	1000.50	68.579	1000.50	69.866
17	1000.50	996.50	993.00	68.606	993.00	70.330
18	993.00	986.00	984.50	69.023	984.50	69.800
19	984.50	979.00	976.50	68.917	976.50	69.803
20	976.50	972.00	965.00	68.416	965.00	69.811
21	965.00	957.50	955.50	68.334	955.50	69.530
22	955.50	953.50	951.00	68.252	951.00	69.417
23	951.00	949.00	946.00	68.421	946.00	69.675
24	946.00	943.50	940.00	68.340	940.00	69.847
25	940.00	936.00	933.00	68.750	933.00	69.619
26	933.00	930.50	926.00	68.360	926.00	69.064
27	926.00	924.00	920.00	67.927	920.00	69.363
28	920.00	914.50	912.00	67.770	912.00	69.008
29	912.00	910.00	908.50	68.101	908.50	68.877
30	908.50	906.50	904.00	67.973	904.00	69.377
31	904.00	899.50	893.50	68.045	893.50	69.285
32	893.50	890.50	887.50	68.274	887.50	69.635
33	887.50	885.50	882.50	68.448	882.50	69.517
34	882.50	875.50	872.50	68.163	872.50	69.298
35	872.50	870.50	865.50	68.292	865.50	69.234
36	865.50	863.50	861.50	68.032	861.50	68.764
37	861.50	859.50	854.50	67.748	854.50	68.649
38	854.50	852.50	847.50	67.852	847.50	68.855
39	847.50	846.00	843.50	67.930	843.50	68.939
40	843.50	837.50	830.00	67.229	830.00	68.967
41	830.00	820.50	818.00	67.840	818.00	68.740
42	818.00	815.50	809.50	67.927	809.50	68.690
43	809.50	802.50	797.50	68.161	797.50	68.635
44	797.50	794.50	782.50	68.175	782.50	68.613
45	782.50	780.00	775.50	68.212	775.50	68.518
46	775.50	765.50	764.00	68.153	764.00	68.377
47	764.00	761.50	759.00	68.176	759.00	68.408
48	759.00	756.50	750.50	68.165	750.50	68.443
49	750.50	748.00	746.00	68.183	746.00	68.514
50	746.00	743.00	741.00	67.928	741.00	68.288
51	741.00	738.50	737.00	68.000	737.00	68.221
52	737.00	732.50	730.00	68.059	730.00	68.277
53	730.00	727.00	724.00	67.897	724.00	68.193
54	724.00	722.00	721.00	68.047	721.00	68.195
55	721.00	713.00	710.50	67.902	710.50	68.184
56	710.50	707.50	703.50	67.883	703.50	68.042
57	703.50	699.50	697.50	67.725	697.50	67.882
58	697.50	695.50	693.00	67.788	693.00	68.048
59	693.00	687.00	682.00	67.814	682.00	68.025
60	682.00	675.50	672.50	67.585	672.50	67.808
61	672.50	670.00	668.00	67.562	668.00	67.834
62	668.00	665.50	663.50	67.659	663.50	67.795
63	663.50	661.50	658.00	67.658	658.00	67.803
64	658.00	655.00	653.50	67.506	653.50	67.675
65	653.50	651.50	649.00	67.539	649.00	67.824
66	649.00	646.50	643.50	67.585	643.50	67.781
67	643.50	638.00	632.00	67.374	632.00	67.606
68	632.00	628.50	623.50	67.327	623.50	67.558
69	623.50	620.00	618.00	67.362	618.00	67.469
70	618.00	616.00	613.50	67.368	613.50	67.420
71	613.50	611.00	608.00	67.233	608.00	67.354
72	608.00	606.00	603.00	67.116	603.00	67.248
73	603.00	602.00	600.00	67.187	600.00	67.316
74	600.00	595.50	594.00	67.010	594.00	67.166
75	594.00	592.00	589.50	67.069	589.50	67.224
76	589.50	579.50	577.00	66.937	577.00	67.057
77	577.00	573.00	567.00	66.871	567.00	66.953
78	567.00	565.00	561.50	66.715	561.50	66.862
79	561.50	558.00	556.00	66.724	556.00	66.902
80	556.00	548.50	545.50	66.588	545.50	66.709
81	545.50	543.50	541.00	66.516	541.00	66.733
82	541.00	536.00	533.50	66.421	533.50	66.504
83	533.50	531.00	529.00	66.269	529.00	66.368
84	529.00	527.50	524.50	66.282	524.50	66.386
85	524.50	514.50	512.00	66.030	512.00	66.138
86	512.00	507.00	505.00	65.983	505.00	66.094
87	505.00	500.00	498.50	65.666	498.50	65.822
88	498.50	492.00	489.50	65.559	489.50	65.688
89	489.50	482.00	478.50	65.278	478.50	65.375
90	478.50	469.00	467.00	64.976	467.00	65.099
91	467.00	452.50	449.50	64.463	449.50	64.650
92	449.50	443.50	440.50	64.106	440.50	64.244
93	440.50	377.50	363.50	-0.032	363.50	0.018
94	363.50	358.00	344.50	0.004	344.50	0.036
95	344.50	338.00	328.50	-0.009	328.50	0.002
96	328.50	320.50	212.50	-0.013	212.50	0.022
97	212.50	210.50	190.00	0.012	190.00	0.310

ﾃﾞｰﾀﾘｽﾄ
nm	%T
1100.00	-196.031
1099.50	-447.257
1099.00	-495.643
1098.50	-401.177
1098.00	-152.356
1097.50	65.117
1097.00	340.457
1096.50	521.991
1096.00	470.068
1095.50	150.263
1095.00	164.574
1094.50	46.806
1094.00	-5.609
1093.50	120.887
1093.00	38.267
1092.50	-11.991
1092.00	-5.991
1091.50	-10.888
1091.00	33.546
1090.50	-28.714
1090.00	-18.970
1089.50	-19.518
1089.00	-15.339
1088.50	-15.312
1088.00	-13.312
1087.50	22.630
1087.00	27.792
1086.50	19.605
1086.00	-8.187
1085.50	-49.434
1085.00	-57.533
1084.50	-12.666
1084.00	8.902
1083.50	-14.494
1083.00	-26.767
1082.50	-60.502
1082.00	-82.568
1081.50	-78.789
1081.00	-75.508
1080.50	-36.529
1080.00	-4.554
1079.50	33.107
1079.00	64.667
1078.50	61.359
1078.00	10.770
1077.50	-1.990
1077.00	68.342
1076.50	96.822
1076.00	88.837
1075.50	44.704
1075.00	3.418
1074.50	7.252
1074.00	-7.015
1073.50	19.257
1073.00	38.115
1072.50	60.967
1072.00	63.195
1071.50	78.524
1071.00	63.832
1070.50	6.200
1070.00	39.663
1069.50	69.965
1069.00	93.354
1068.50	113.131
1068.00	125.234
1067.50	110.617
1067.00	72.006
1066.50	57.320
1066.00	56.627
1065.50	70.024
1065.00	75.724
1064.50	85.855
1064.00	102.709
1063.50	102.916
1063.00	84.110
1062.50	64.117
1062.00	53.155
1061.50	61.020
1061.00	61.680
1060.50	55.212
1060.00	62.438
1059.50	61.417
1059.00	68.382
1058.50	74.257
1058.00	78.071
1057.50	73.186
1057.00	76.067
1056.50	79.473
1056.00	68.051
1055.50	62.835
1055.00	68.415
1054.50	82.127
1054.00	84.929
1053.50	85.343
1053.00	85.678
1052.50	78.728
1052.00	76.034
1051.50	74.282
1051.00	76.496
1050.50	74.236
1050.00	74.455
1049.50	71.506
1049.00	67.527
1048.50	66.114
1048.00	66.383
1047.50	67.310
1047.00	68.177
1046.50	70.294
1046.00	72.839
1045.50	71.000
1045.00	69.780
1044.50	67.302
1044.00	67.802
1043.50	69.526
1043.00	72.499
1042.50	72.206
1042.00	70.932
1041.50	69.703
1041.00	67.624
1040.50	66.226
1040.00	67.055
1039.50	67.716
1039.00	70.865
1038.50	73.243
1038.00	72.567
1037.50	72.010
1037.00	71.795
1036.50	70.593
1036.00	69.338
1035.50	66.862
1035.00	66.919
1034.50	68.049
1034.00	68.546
1033.50	69.378
1033.00	70.010
1032.50	70.112
1032.00	70.151
1031.50	70.169
1031.00	69.190
1030.50	67.936
1030.00	68.175
1029.50	69.128
1029.00	70.350
1028.50	71.183
1028.00	72.091
1027.50	71.982
1027.00	71.905
1026.50	70.798
1026.00	69.820
1025.50	69.960
1025.00	69.843
1024.50	70.042
1024.00	70.189
1023.50	70.336
1023.00	70.477
1022.50	70.028
1022.00	69.537
1021.50	69.771
1021.00	70.113
1020.50	70.438
1020.00	70.892
1019.50	70.625
1019.00	70.643
1018.50	70.284
1018.00	70.356
1017.50	69.017
1017.00	68.612
1016.50	68.732
1016.00	69.047
1015.50	69.224
1015.00	69.550
1014.50	69.734
1014.00	70.130
1013.50	70.260
1013.00	70.019
1012.50	69.372
1012.00	69.281
1011.50	68.901
1011.00	69.285
1010.50	68.707
1010.00	68.866
1009.50	68.665
1009.00	68.865
1008.50	68.888
1008.00	69.227
1007.50	69.299
1007.00	69.677
1006.50	69.771
1006.00	69.628
1005.50	69.591
1005.00	69.173
1004.50	68.940
1004.00	68.842
1003.50	68.579
1003.00	68.682
1002.50	68.732
1002.00	69.147
1001.50	69.531
1001.00	69.591
1000.50	69.866
1000.00	69.749
999.50	69.567
999.00	69.331
998.50	69.375
998.00	69.101
997.50	68.752
997.00	68.904
996.50	68.606
996.00	68.840
995.50	69.070
995.00	69.400
994.50	69.858
994.00	70.082
993.50	70.230
993.00	70.330
992.50	70.269
992.00	70.084
991.50	70.029
991.00	69.928
990.50	69.552
990.00	69.781
989.50	69.469
989.00	69.530
988.50	69.455
988.00	69.098
987.50	69.191
987.00	69.280
986.50	69.248
986.00	69.023
985.50	69.583
985.00	69.630
984.50	69.800
984.00	69.571
983.50	69.353
983.00	69.265
982.50	69.196
982.00	69.223
981.50	69.314
981.00	68.974
980.50	69.122
980.00	69.239
979.50	69.316
979.00	68.917
978.50	69.215
978.00	69.337
977.50	69.503
977.00	69.589
976.50	69.803
976.00	69.718
975.50	69.770
975.00	69.515
974.50	69.473
974.00	69.095
973.50	68.938
973.00	68.733
972.50	68.642
972.00	68.416
971.50	68.615
971.00	68.989
970.50	68.892
970.00	69.122
969.50	69.059
969.00	69.093
968.50	68.683
968.00	68.529
967.50	69.036
967.00	69.388
966.50	69.403
966.00	69.528
965.50	69.745
965.00	69.811
964.50	69.756
964.00	69.752
963.50	69.366
963.00	69.421
962.50	69.326
962.00	69.435
961.50	68.792
961.00	68.601
960.50	69.056
960.00	69.557
959.50	69.474
959.00	69.234
958.50	68.733
958.00	68.612
957.50	68.334
957.00	68.550
956.50	68.704
956.00	69.184
955.50	69.530
955.00	69.413
954.50	68.884
954.00	68.404
953.50	68.252
953.00	68.261
952.50	68.503
952.00	68.933
951.50	69.048
951.00	69.417
950.50	69.043
950.00	68.969
949.50	68.655
949.00	68.421
948.50	68.430
948.00	68.540
947.50	68.787
947.00	69.177
946.50	69.549
946.00	69.675
945.50	69.531
945.00	69.282
944.50	68.782
944.00	68.668
943.50	68.340
943.00	68.625
942.50	69.059
942.00	69.281
941.50	69.409
941.00	69.616
940.50	69.699
940.00	69.847
939.50	69.508
939.00	69.564
938.50	69.297
938.00	69.079
937.50	68.834
937.00	68.838
936.50	68.890
936.00	68.750
935.50	68.856
935.00	68.966
934.50	68.967
934.00	69.143
933.50	69.262
933.00	69.619
932.50	68.965
932.00	68.776
931.50	68.604
931.00	68.460
930.50	68.360
930.00	68.616
929.50	68.819
929.00	68.944
928.50	68.978
928.00	68.862
927.50	68.829
927.00	68.764
926.50	68.706
926.00	69.064
925.50	68.637
925.00	68.415
924.50	68.169
924.00	67.927
923.50	67.984
923.00	68.193
922.50	68.148
922.00	68.383
921.50	68.568
921.00	68.851
920.50	69.231
920.00	69.363
919.50	69.238
919.00	69.287
918.50	68.762
918.00	68.576
917.50	68.430
917.00	68.229
916.50	68.274
916.00	68.267
915.50	68.254
915.00	68.043
914.50	67.770
914.00	68.147
913.50	68.367
913.00	68.646
912.50	68.801
912.00	69.008
911.50	68.695
911.00	68.373
910.50	68.189
910.00	68.101
909.50	68.526
909.00	68.703
908.50	68.877
908.00	68.649
907.50	68.308
907.00	68.224
906.50	67.973
906.00	68.238
905.50	68.325
905.00	68.789
904.50	69.209
904.00	69.377
903.50	69.159
903.00	68.998
902.50	68.856
902.00	68.889
901.50	68.821
901.00	68.555
900.50	68.475
900.00	68.094
899.50	68.045
899.00	68.352
898.50	68.403
898.00	68.663
897.50	68.931
897.00	69.208
896.50	68.901
896.00	68.841
895.50	68.653
895.00	68.708
894.50	68.753
894.00	68.928
893.50	69.285
893.00	69.069
892.50	69.023
892.00	68.957
891.50	68.531
891.00	68.290
890.50	68.274
890.00	68.473
889.50	68.407
889.00	68.644
888.50	68.974
888.00	69.460
887.50	69.635
887.00	69.444
886.50	69.278
886.00	68.798
885.50	68.448
885.00	68.499
884.50	68.472
884.00	68.757
883.50	69.083
883.00	69.245
882.50	69.517
882.00	69.509
881.50	69.094
881.00	68.823
880.50	68.640
880.00	68.684
879.50	68.862
879.00	68.671
878.50	68.762
878.00	68.674
877.50	68.595
877.00	68.658
876.50	68.390
876.00	68.237
875.50	68.163
875.00	68.423
874.50	68.833
874.00	68.888
873.50	69.090
873.00	69.074
872.50	69.298
872.00	68.915
871.50	68.848
871.00	68.485
870.50	68.292
870.00	68.638
869.50	68.451
869.00	68.700
868.50	68.722
868.00	68.770
867.50	68.978
867.00	68.878
866.50	69.047
866.00	69.064
865.50	69.234
865.00	68.952
864.50	68.673
864.00	68.161
863.50	68.032
863.00	68.238
862.50	68.335
862.00	68.571
861.50	68.764
861.00	68.629
860.50	68.378
860.00	68.041
859.50	67.748
859.00	68.039
858.50	68.372
858.00	68.412
857.50	68.485
857.00	68.451
856.50	68.299
856.00	68.160
855.50	68.428
855.00	68.571
854.50	68.649
854.00	68.579
853.50	68.194
853.00	68.182
852.50	67.852
852.00	67.897
851.50	67.951
851.00	67.871
850.50	68.099
850.00	68.407
849.50	68.613
849.00	68.706
848.50	68.763
848.00	68.830
847.50	68.855
847.00	68.529
846.50	68.040
846.00	67.930
845.50	68.110
845.00	68.499
844.50	68.722
844.00	68.909
843.50	68.939
843.00	68.739
842.50	68.740
842.00	68.513
841.50	68.264
841.00	68.270
840.50	68.190
840.00	67.987
839.50	67.728
839.00	67.471
838.50	67.420
838.00	67.342
837.50	67.229
837.00	67.533
836.50	67.965
836.00	68.264
835.50	68.553
835.00	68.607
834.50	68.503
834.00	68.609
833.50	68.612
833.00	68.426
832.50	68.312
832.00	68.432
831.50	68.657
831.00	68.890
830.50	68.943
830.00	68.967
829.50	68.870
829.00	68.810
828.50	68.824
828.00	68.852
827.50	68.642
827.00	68.579
826.50	68.675
826.00	68.565
825.50	68.467
825.00	68.199
824.50	68.116
824.00	68.190
823.50	68.244
823.00	68.238
822.50	68.198
822.00	68.215
821.50	68.104
821.00	68.019
820.50	67.840
820.00	67.870
819.50	67.978
819.00	68.287
818.50	68.559
818.00	68.740
817.50	68.700
817.00	68.584
816.50	68.512
816.00	68.054
815.50	67.927
815.00	67.965
814.50	68.076
814.00	68.160
813.50	68.186
813.00	68.303
812.50	68.298
812.00	68.286
811.50	68.262
811.00	68.411
810.50	68.547
810.00	68.596
809.50	68.690
809.00	68.631
808.50	68.630
808.00	68.584
807.50	68.568
807.00	68.493
806.50	68.443
806.00	68.484
805.50	68.550
805.00	68.559
804.50	68.431
804.00	68.223
803.50	68.168
803.00	68.248
802.50	68.161
802.00	68.229
801.50	68.367
801.00	68.447
800.50	68.542
800.00	68.484
799.50	68.359
799.00	68.428
798.50	68.392
798.00	68.630
797.50	68.635
797.00	68.483
796.50	68.353
796.00	68.313
795.50	68.225
795.00	68.192
794.50	68.175
794.00	68.234
793.50	68.443
793.00	68.479
792.50	68.310
792.00	68.228
791.50	68.159
791.00	68.301
790.50	68.304
790.00	68.292
789.50	68.398
789.00	68.376
788.50	68.388
788.00	68.417
787.50	68.317
787.00	68.344
786.50	68.449
786.00	68.532
785.50	68.554
785.00	68.455
784.50	68.490
784.00	68.542
783.50	68.584
783.00	68.591
782.50	68.613
782.00	68.410
781.50	68.342
781.00	68.378
780.50	68.297
780.00	68.212
779.50	68.235
779.00	68.283
778.50	68.354
778.00	68.331
777.50	68.385
777.00	68.347
776.50	68.415
776.00	68.461
775.50	68.518
775.00	68.350
774.50	68.310
774.00	68.310
773.50	68.280
773.00	68.261
772.50	68.288
772.00	68.361
771.50	68.353
771.00	68.291
770.50	68.240
770.00	68.176
769.50	68.166
769.00	68.178
768.50	68.222
768.00	68.241
767.50	68.220
767.00	68.231
766.50	68.187
766.00	68.173
765.50	68.153
765.00	68.207
764.50	68.247
764.00	68.377
763.50	68.281
763.00	68.302
762.50	68.231
762.00	68.222
761.50	68.176
761.00	68.193
760.50	68.203
760.00	68.310
759.50	68.331
759.00	68.408
758.50	68.350
758.00	68.333
757.50	68.303
757.00	68.327
756.50	68.165
756.00	68.168
755.50	68.183
755.00	68.224
754.50	68.253
754.00	68.325
753.50	68.353
753.00	68.368
752.50	68.388
752.00	68.423
751.50	68.395
751.00	68.442
750.50	68.443
750.00	68.373
749.50	68.281
749.00	68.202
748.50	68.234
748.00	68.183
747.50	68.209
747.00	68.358
746.50	68.482
746.00	68.514
745.50	68.492
745.00	68.375
744.50	68.275
744.00	68.131
743.50	67.987
743.00	67.928
742.50	68.022
742.00	68.121
741.50	68.219
741.00	68.288
740.50	68.244
740.00	68.196
739.50	68.157
739.00	68.081
738.50	68.000
738.00	68.018
737.50	68.166
737.00	68.221
736.50	68.217
736.00	68.180
735.50	68.196
735.00	68.207
734.50	68.158
734.00	68.136
733.50	68.110
733.00	68.079
732.50	68.059
732.00	68.105
731.50	68.083
731.00	68.116
730.50	68.215
730.00	68.277
729.50	68.263
729.00	68.225
728.50	68.185
728.00	68.067
727.50	67.980
727.00	67.897
726.50	67.961
726.00	68.047
725.50	68.105
725.00	68.185
724.50	68.179
724.00	68.193
723.50	68.163
723.00	68.122
722.50	68.051
722.00	68.047
721.50	68.161
721.00	68.195
720.50	68.183
720.00	68.132
719.50	68.120
719.00	68.092
718.50	68.064
718.00	67.982
717.50	67.991
717.00	68.090
716.50	68.109
716.00	68.116
715.50	68.091
715.00	67.974
714.50	67.976
714.00	67.971
713.50	67.912
713.00	67.902
712.50	67.960
712.00	68.028
711.50	68.130
711.00	68.142
710.50	68.184
710.00	68.175
709.50	68.099
709.00	68.018
708.50	67.972
708.00	67.910
707.50	67.883
707.00	67.950
706.50	67.984
706.00	67.987
705.50	68.001
705.00	68.006
704.50	68.011
704.00	68.005
703.50	68.042
703.00	68.001
702.50	67.973
702.00	67.959
701.50	67.959
701.00	67.892
700.50	67.797
700.00	67.791
699.50	67.725
699.00	67.745
698.50	67.829
698.00	67.856
697.50	67.882
697.00	67.870
696.50	67.860
696.00	67.838
695.50	67.788
695.00	67.795
694.50	67.876
694.00	67.904
693.50	68.012
693.00	68.048
692.50	67.969
692.00	67.907
691.50	67.907
691.00	67.849
690.50	67.854
690.00	67.835
689.50	67.808
689.00	67.892
688.50	67.884
688.00	67.870
687.50	67.849
687.00	67.814
686.50	67.867
686.00	67.833
685.50	67.818
685.00	67.848
684.50	67.889
684.00	67.944
683.50	67.954
683.00	67.971
682.50	67.957
682.00	68.025
681.50	67.982
681.00	67.910
680.50	67.833
680.00	67.802
679.50	67.834
679.00	67.815
678.50	67.790
678.00	67.789
677.50	67.793
677.00	67.819
676.50	67.765
676.00	67.691
675.50	67.585
675.00	67.623
674.50	67.652
674.00	67.670
673.50	67.728
673.00	67.796
672.50	67.808
672.00	67.805
671.50	67.707
671.00	67.611
670.50	67.575
670.00	67.562
669.50	67.660
669.00	67.717
668.50	67.768
668.00	67.834
667.50	67.817
667.00	67.741
666.50	67.680
666.00	67.673
665.50	67.659
665.00	67.708
664.50	67.704
664.00	67.782
663.50	67.795
663.00	67.791
662.50	67.765
662.00	67.664
661.50	67.658
661.00	67.662
660.50	67.674
660.00	67.677
659.50	67.710
659.00	67.796
658.50	67.801
658.00	67.803
657.50	67.727
657.00	67.697
656.50	67.628
656.00	67.577
655.50	67.518
655.00	67.506
654.50	67.597
654.00	67.638
653.50	67.675
653.00	67.655
652.50	67.657
652.00	67.594
651.50	67.539
651.00	67.557
650.50	67.596
650.00	67.684
649.50	67.786
649.00	67.824
648.50	67.786
648.00	67.729
647.50	67.684
647.00	67.619
646.50	67.585
646.00	67.587
645.50	67.658
645.00	67.686
644.50	67.732
644.00	67.771
643.50	67.781
643.00	67.764
642.50	67.724
642.00	67.682
641.50	67.628
641.00	67.571
640.50	67.497
640.00	67.484
639.50	67.479
639.00	67.448
638.50	67.397
638.00	67.374
637.50	67.394
637.00	67.466
636.50	67.495
636.00	67.516
635.50	67.492
635.00	67.512
634.50	67.481
634.00	67.467
633.50	67.452
633.00	67.490
632.50	67.569
632.00	67.606
631.50	67.576
631.00	67.491
630.50	67.417
630.00	67.377
629.50	67.347
629.00	67.333
628.50	67.327
628.00	67.403
627.50	67.413
627.00	67.421
626.50	67.419
626.00	67.402
625.50	67.455
625.00	67.492
624.50	67.509
624.00	67.521
623.50	67.558
623.00	67.556
622.50	67.540
622.00	67.479
621.50	67.425
621.00	67.390
620.50	67.387
620.00	67.362
619.50	67.369
619.00	67.378
618.50	67.437
618.00	67.469
617.50	67.469
617.00	67.399
616.50	67.380
616.00	67.368
615.50	67.369
615.00	67.384
614.50	67.390
614.00	67.396
613.50	67.420
613.00	67.388
612.50	67.371
612.00	67.305
611.50	67.240
611.00	67.233
610.50	67.260
610.00	67.247
609.50	67.274
609.00	67.296
608.50	67.345
608.00	67.354
607.50	67.347
607.00	67.271
606.50	67.169
606.00	67.116
605.50	67.175
605.00	67.202
604.50	67.232
604.00	67.246
603.50	67.245
603.00	67.248
602.50	67.188
602.00	67.187
601.50	67.226
601.00	67.220
600.50	67.269
600.00	67.316
599.50	67.293
599.00	67.255
598.50	67.289
598.00	67.239
597.50	67.194
597.00	67.158
596.50	67.117
596.00	67.094
595.50	67.010
595.00	67.082
594.50	67.142
594.00	67.166
593.50	67.165
593.00	67.161
592.50	67.096
592.00	67.069
591.50	67.091
591.00	67.114
590.50	67.155
590.00	67.207
589.50	67.224
589.00	67.214
588.50	67.189
588.00	67.215
587.50	67.184
587.00	67.118
586.50	67.110
586.00	67.147
585.50	67.134
585.00	67.119
584.50	67.040
584.00	67.001
583.50	67.028
583.00	67.033
582.50	67.007
582.00	66.980
581.50	66.939
581.00	66.986
580.50	67.013
580.00	66.967
579.50	66.937
579.00	66.946
578.50	66.971
578.00	67.036
577.50	67.025
577.00	67.057
576.50	67.054
576.00	67.048
575.50	67.019
575.00	67.003
574.50	66.938
574.00	66.911
573.50	66.882
573.00	66.871
572.50	66.896
572.00	66.891
571.50	66.935
571.00	66.943
570.50	66.906
570.00	66.904
569.50	66.915
569.00	66.925
568.50	66.931
568.00	66.938
567.50	66.947
567.00	66.953
566.50	66.942
566.00	66.872
565.50	66.793
565.00	66.715
564.50	66.756
564.00	66.806
563.50	66.826
563.00	66.828
562.50	66.857
562.00	66.843
561.50	66.862
561.00	66.823
560.50	66.796
560.00	66.757
559.50	66.772
559.00	66.772
558.50	66.768
558.00	66.724
557.50	66.742
557.00	66.801
556.50	66.850
556.00	66.902
555.50	66.892
555.00	66.853
554.50	66.838
554.00	66.802
553.50	66.789
553.00	66.805
552.50	66.842
552.00	66.841
551.50	66.847
551.00	66.806
550.50	66.746
550.00	66.663
549.50	66.645
549.00	66.608
548.50	66.588
548.00	66.621
547.50	66.641
547.00	66.661
546.50	66.658
546.00	66.703
545.50	66.709
545.00	66.665
544.50	66.627
544.00	66.566
543.50	66.516
543.00	66.526
542.50	66.629
542.00	66.654
541.50	66.689
541.00	66.733
540.50	66.698
540.00	66.600
539.50	66.512
539.00	66.470
538.50	66.429
538.00	66.434
537.50	66.477
537.00	66.470
536.50	66.431
536.00	66.421
535.50	66.421
535.00	66.421
534.50	66.468
534.00	66.503
533.50	66.504
533.00	66.447
532.50	66.361
532.00	66.317
531.50	66.285
531.00	66.269
530.50	66.290
530.00	66.343
529.50	66.340
529.00	66.368
528.50	66.329
528.00	66.285
527.50	66.282
527.00	66.292
526.50	66.328
526.00	66.376
525.50	66.369
525.00	66.358
524.50	66.386
524.00	66.379
523.50	66.348
523.00	66.347
522.50	66.271
522.00	66.231
521.50	66.210
521.00	66.167
520.50	66.145
520.00	66.147
519.50	66.151
519.00	66.174
518.50	66.151
518.00	66.106
517.50	66.115
517.00	66.107
516.50	66.074
516.00	66.059
515.50	66.036
515.00	66.040
514.50	66.030
514.00	66.033
513.50	66.071
513.00	66.111
512.50	66.137
512.00	66.138
511.50	66.106
511.00	66.068
510.50	66.093
510.00	66.101
509.50	66.123
509.00	66.133
508.50	66.100
508.00	66.070
507.50	66.005
507.00	65.983
506.50	66.013
506.00	66.029
505.50	66.082
505.00	66.094
504.50	66.085
504.00	66.084
503.50	66.067
503.00	65.974
502.50	65.891
502.00	65.831
501.50	65.733
501.00	65.699
500.50	65.684
500.00	65.666
499.50	65.727
499.00	65.775
498.50	65.822
498.00	65.806
497.50	65.722
497.00	65.705
496.50	65.711
496.00	65.725
495.50	65.776
495.00	65.784
494.50	65.761
494.00	65.747
493.50	65.709
493.00	65.628
492.50	65.572
492.00	65.559
491.50	65.578
491.00	65.640
490.50	65.645
490.00	65.683
489.50	65.688
489.00	65.653
488.50	65.637
488.00	65.589
487.50	65.575
487.00	65.527
486.50	65.491
486.00	65.521
485.50	65.507
485.00	65.479
484.50	65.419
484.00	65.392
483.50	65.347
483.00	65.325
482.50	65.296
482.00	65.278
481.50	65.295
481.00	65.307
480.50	65.346
480.00	65.339
479.50	65.329
479.00	65.364
478.50	65.375
478.00	65.355
477.50	65.283
477.00	65.248
476.50	65.254
476.00	65.207
475.50	65.210
475.00	65.192
474.50	65.175
474.00	65.174
473.50	65.197
473.00	65.178
472.50	65.190
472.00	65.187
471.50	65.190
471.00	65.140
470.50	65.083
470.00	65.030
469.50	65.012
469.00	64.976
468.50	65.032
468.00	65.076
467.50	65.076
467.00	65.099
466.50	65.074
466.00	65.003
465.50	64.983
465.00	64.970
464.50	65.013
464.00	64.997
463.50	64.996
463.00	65.023
462.50	65.012
462.00	64.968
461.50	64.926
461.00	64.895
460.50	64.872
460.00	64.908
459.50	64.896
459.00	64.863
458.50	64.836
458.00	64.784
457.50	64.761
457.00	64.703
456.50	64.641
456.00	64.607
455.50	64.600
455.00	64.588
454.50	64.578
454.00	64.577
453.50	64.558
453.00	64.513
452.50	64.463
452.00	64.475
451.50	64.488
451.00	64.527
450.50	64.550
450.00	64.610
449.50	64.650
449.00	64.571
448.50	64.488
448.00	64.379
447.50	64.273
447.00	64.225
446.50	64.225
446.00	64.191
445.50	64.182
445.00	64.213
444.50	64.195
444.00	64.160
443.50	64.106
443.00	64.119
442.50	64.159
442.00	64.151
441.50	64.240
441.00	64.240
440.50	64.244
440.00	64.234
439.50	64.225
439.00	64.216
438.50	64.164
438.00	64.148
437.50	64.175
437.00	64.185
436.50	64.173
436.00	64.128
435.50	64.076
435.00	64.032
434.50	64.048
434.00	63.978
433.50	63.886
433.00	63.785
432.50	63.750
432.00	63.813
431.50	63.798
431.00	63.785
430.50	63.809
430.00	63.828
429.50	63.820
429.00	63.739
428.50	63.646
428.00	63.615
427.50	63.574
427.00	63.592
426.50	63.603
426.00	63.554
425.50	63.519
425.00	63.511
424.50	63.499
424.00	63.453
423.50	63.430
423.00	63.407
422.50	63.414
422.00	63.387
421.50	63.395
421.00	63.415
420.50	63.383
420.00	63.328
419.50	63.260
419.00	63.179
418.50	63.135
418.00	63.064
417.50	63.073
417.00	63.067
416.50	63.076
416.00	63.100
415.50	63.098
415.00	63.068
414.50	63.015
414.00	62.938
413.50	62.908
413.00	62.884
412.50	62.795
412.00	62.749
411.50	62.730
411.00	62.656
410.50	62.592
410.00	62.550
409.50	62.484
409.00	62.449
408.50	62.373
408.00	62.285
407.50	62.186
407.00	62.075
406.50	61.954
406.00	61.767
405.50	61.549
405.00	61.376
404.50	61.221
404.00	61.039
403.50	60.823
403.00	60.599
402.50	60.342
402.00	60.051
401.50	59.674
401.00	59.286
400.50	58.883
400.00	58.431
399.50	57.891
399.00	57.232
398.50	56.433
398.00	55.528
397.50	54.407
397.00	53.430
396.50	52.390
396.00	51.122
395.50	49.576
395.00	47.701
394.50	45.499
394.00	43.120
393.50	40.501
393.00	38.122
392.50	35.748
392.00	33.334
391.50	30.686
391.00	27.775
390.50	24.425
390.00	21.080
389.50	17.996
389.00	15.120
388.50	12.437
388.00	9.988
387.50	7.805
387.00	5.807
386.50	3.804
386.00	2.317
385.50	1.237
385.00	0.590
384.50	0.283
384.00	0.207
383.50	0.189
383.00	0.060
382.50	0.034
382.00	0.033
381.50	0.036
381.00	0.034
380.50	0.025
380.00	0.021
379.50	0.006
379.00	-0.012
378.50	-0.023
378.00	-0.032
377.50	-0.032
377.00	-0.026
376.50	-0.022
376.00	-0.023
375.50	-0.028
375.00	-0.029
374.50	-0.028
374.00	-0.026
373.50	-0.024
373.00	-0.016
372.50	-0.010
372.00	-0.011
371.50	-0.010
371.00	-0.011
370.50	-0.008
370.00	-0.007
369.50	-0.004
369.00	0.000
368.50	0.000
368.00	0.003
367.50	0.005
367.00	0.005
366.50	0.006
366.00	0.008
365.50	0.010
365.00	0.013
364.50	0.017
364.00	0.017
363.50	0.018
363.00	0.015
362.50	0.013
362.00	0.012
361.50	0.012
361.00	0.015
360.50	0.013
360.00	0.013
359.50	0.011
359.00	0.011
358.50	0.006
358.00	0.004
357.50	0.009
357.00	0.008
356.50	0.008
356.00	0.007
355.50	0.006
355.00	0.006
354.50	0.010
354.00	0.016
353.50	0.018
353.00	0.017
352.50	0.016
352.00	0.016
351.50	0.016
351.00	0.019
350.50	0.020
350.00	0.022
349.50	0.022
349.00	0.022
348.50	0.020
348.00	0.019
347.50	0.024
347.00	0.028
346.50	0.031
346.00	0.032
345.50	0.031
345.00	0.032
344.50	0.036
344.00	0.036
343.50	0.031
343.00	0.028
342.50	0.028
342.00	0.030
341.50	0.028
341.00	0.025
340.50	0.024
340.00	0.020
339.50	0.014
339.00	0.006
338.50	-0.003
338.00	-0.009
337.50	-0.007
337.00	-0.005
336.50	-0.003
336.00	-0.003
335.50	-0.003
335.00	-0.005
334.50	-0.005
334.00	-0.004
333.50	-0.005
333.00	-0.005
332.50	-0.005
332.00	-0.005
331.50	-0.005
331.00	-0.002
330.50	-0.001
330.00	0.000
329.50	0.000
329.00	0.000
328.50	0.002
328.00	0.000
327.50	-0.002
327.00	-0.001
326.50	-0.001
326.00	0.000
325.50	0.001
325.00	0.000
324.50	-0.001
324.00	0.000
323.50	-0.002
323.00	-0.004
322.50	-0.008
322.00	-0.011
321.50	-0.011
321.00	-0.011
320.50	-0.013
320.00	-0.011
319.50	-0.010
319.00	-0.008
318.50	-0.007
318.00	-0.008
317.50	-0.007
317.00	-0.005
316.50	-0.004
316.00	-0.003
315.50	-0.002
315.00	-0.005
314.50	-0.009
314.00	-0.008
313.50	-0.009
313.00	-0.007
312.50	-0.005
312.00	-0.004
311.50	-0.005
311.00	-0.006
310.50	-0.008
310.00	-0.009
309.50	-0.009
309.00	-0.008
308.50	-0.006
308.00	-0.005
307.50	-0.008
307.00	-0.008
306.50	-0.009
306.00	-0.008
305.50	-0.006
305.00	-0.007
304.50	-0.008
304.00	-0.009
303.50	-0.010
303.00	-0.011
302.50	-0.009
302.00	-0.008
301.50	-0.007
301.00	-0.006
300.50	-0.006
300.00	-0.007
299.50	-0.009
299.00	-0.010
298.50	-0.009
298.00	-0.007
297.50	-0.004
297.00	-0.003
296.50	-0.003
296.00	-0.005
295.50	-0.005
295.00	-0.005
294.50	-0.005
294.00	-0.003
293.50	-0.004
293.00	-0.006
292.50	-0.007
292.00	-0.009
291.50	-0.011
291.00	-0.011
290.50	-0.009
290.00	-0.006
289.50	-0.006
289.00	-0.006
288.50	-0.005
288.00	-0.006
287.50	-0.007
287.00	-0.007
286.50	-0.008
286.00	-0.008
285.50	-0.007
285.00	-0.007
284.50	-0.008
284.00	-0.006
283.50	-0.006
283.00	-0.004
282.50	-0.004
282.00	-0.005
281.50	-0.004
281.00	-0.004
280.50	-0.004
280.00	-0.004
279.50	-0.003
279.00	-0.002
278.50	-0.001
278.00	0.000
277.50	0.001
277.00	-0.001
276.50	-0.001
276.00	-0.002
275.50	-0.004
275.00	-0.004
274.50	-0.004
274.00	-0.003
273.50	-0.001
273.00	0.000
272.50	0.000
272.00	0.000
271.50	0.000
271.00	0.000
270.50	0.001
270.00	-0.001
269.50	0.000
269.00	0.000
268.50	-0.003
268.00	-0.004
267.50	-0.005
267.00	-0.004
266.50	-0.003
266.00	-0.002
265.50	-0.001
265.00	0.000
264.50	0.001
264.00	0.000
263.50	0.000
263.00	-0.002
262.50	-0.001
262.00	-0.001
261.50	0.000
261.00	-0.001
260.50	-0.001
260.00	-0.001
259.50	0.000
259.00	0.000
258.50	0.000
258.00	0.001
257.50	0.001
257.00	0.000
256.50	0.000
256.00	0.000
255.50	-0.001
255.00	-0.001
254.50	-0.002
254.00	-0.002
253.50	-0.004
253.00	-0.003
252.50	-0.003
252.00	-0.003
251.50	-0.003
251.00	-0.003
250.50	-0.003
250.00	-0.004
249.50	-0.005
249.00	-0.005
248.50	-0.004
248.00	-0.003
247.50	-0.004
247.00	-0.004
246.50	-0.006
246.00	-0.006
245.50	-0.006
245.00	-0.005
244.50	-0.004
244.00	-0.005
243.50	-0.005
243.00	-0.005
242.50	-0.005
242.00	-0.007
241.50	-0.006
241.00	-0.005
240.50	-0.003
240.00	-0.002
239.50	-0.002
239.00	-0.002
238.50	-0.001
238.00	-0.002
237.50	-0.002
237.00	-0.003
236.50	-0.005
236.00	-0.006
235.50	-0.003
235.00	-0.003
234.50	-0.001
234.00	0.000
233.50	-0.001
233.00	-0.002
232.50	-0.004
232.00	-0.005
231.50	-0.005
231.00	-0.005
230.50	-0.004
230.00	-0.001
229.50	0.000
229.00	0.001
228.50	0.001
228.00	0.000
227.50	0.002
227.00	0.003
226.50	0.003
226.00	0.002
225.50	0.002
225.00	0.003
224.50	0.004
224.00	0.006
223.50	0.007
223.00	0.009
222.50	0.007
222.00	0.008
221.50	0.007
221.00	0.007
220.50	0.008
220.00	0.008
219.50	0.008
219.00	0.009
218.50	0.010
218.00	0.011
217.50	0.010
217.00	0.010
216.50	0.010
216.00	0.011
215.50	0.010
215.00	0.011
214.50	0.012
214.00	0.014
213.50	0.016
213.00	0.021
212.50	0.022
212.00	0.020
211.50	0.015
211.00	0.013
210.50	0.012
210.00	0.013
209.50	0.013
209.00	0.015
208.50	0.016
208.00	0.017
207.50	0.020
207.00	0.021
206.50	0.017
206.00	0.016
205.50	0.016
205.00	0.019
204.50	0.022
204.00	0.021
203.50	0.022
203.00	0.025
202.50	0.026
202.00	0.029
201.50	0.034
201.00	0.029
200.50	0.024
200.00	0.025
199.50	0.025
199.00	0.033
198.50	0.028
198.00	0.023
197.50	0.030
197.00	0.039
196.50	0.048
196.00	0.067
195.50	0.067
195.00	0.078
194.50	0.083
194.00	0.081
193.50	0.091
193.00	0.104
192.50	0.127
192.00	0.172
191.50	0.214
191.00	0.251
190.50	0.286
190.00	0.310

