ｻﾝﾌﾟﾙ:	STO_190-1100_600_1_05_R
ﾌｧｲﾙ名:	STO_190-1100_600_1_05_R.UDS
分析日時:	'13:57:33, 09/20/2024
ｵﾍﾟﾚｰﾀ:	OB
ｺﾒﾝﾄ:	'

光度計
ﾓﾃﾞﾙ:	U-3900形分光光度計
ｼﾘｱﾙ No.:	'3004-010
ROM Ver.:	2J25300 07

装置条件
測定ﾓｰﾄﾞ:	波長ｽｷｬﾝ
ﾃﾞｰﾀﾓｰﾄﾞ:	%T
開始波長:	1100.00 nm
終了波長:	190.00 nm
ｽｷｬﾝｽﾋﾟｰﾄﾞ:	600 nm/min
ｻﾝﾌﾟﾘﾝｸﾞ間隔:	0.50 nm
初期待ち時間:	0 s
繰り返し周期:	0.0 min
測定回数:	1
測定前ｵｰﾄｾﾞﾛ:	Off
ｽﾘｯﾄ:	1 nm
ﾎﾄﾏﾙ電圧:	自動制御
光源切換ﾓｰﾄﾞ:	自動切換
光源切換波長:	340.00 nm
ﾍﾞｰｽﾗｲﾝ設定:	ﾕｰｻﾞ 1
高分解能測定:	Off
D2ﾗﾝﾌﾟ:	On
WIﾗﾝﾌﾟ:	On
R/S反転:	Off
ｾﾙ長:	10.0 mm

ﾋﾟｰｸ検出
検出方法:	Rectangular
感度:	1
しきい値:	0.0100

ﾋﾟｰｸ
ﾋﾟｰｸ No.	開始 (nm)	ﾋﾟｰｸ (nm)	終了 (nm)	高さ (%T)	ﾊﾞﾚｰ (nm)	ﾊﾞﾚｰ (%T)
1	1100.00	1097.00	1094.50	-55.241	1094.50	384.639
2	1094.50	1092.00	1089.00	-22.976	1089.00	79.883
3	1089.00	1088.00	1087.00	45.369	1087.00	80.450
4	1087.00	1082.50	1079.00	-2.340	1079.00	59.481
5	1079.00	1075.00	1070.00	-17.803	1070.00	40.189
6	1070.00	1067.50	1066.00	13.589	1066.00	30.121
7	1066.00	1063.50	1061.00	4.697	1061.00	27.881
8	1061.00	1058.50	1055.50	19.708	1055.50	23.723
9	1055.50	1053.50	1047.50	16.404	1047.50	21.439
10	1047.50	1043.50	1039.50	17.297	1039.50	19.167
11	1039.50	1034.00	1023.50	17.402	1023.50	21.559
12	1023.50	1019.00	1016.00	18.651	1016.00	19.231
13	1016.00	1015.50	1011.50	18.883	1011.50	19.425
14	1011.50	1006.00	1003.00	18.699	1003.00	19.412
15	1003.00	1000.50	994.50	18.935	994.50	19.377
16	994.50	992.00	988.50	18.860	988.50	19.401
17	988.50	984.00	980.50	18.871	980.50	19.241
18	980.50	978.50	976.00	18.984	976.00	19.480
19	976.00	973.00	968.50	18.876	968.50	19.580
20	968.50	965.00	963.00	19.101	963.00	19.371
21	963.00	960.50	958.50	19.093	958.50	19.620
22	958.50	955.00	952.00	18.997	952.00	19.566
23	952.00	950.00	948.00	19.170	948.00	19.519
24	948.00	943.00	940.50	19.209	940.50	19.644
25	940.50	931.50	922.00	19.481	922.00	19.955
26	922.00	915.50	912.00	19.417	912.00	19.758
27	912.00	910.50	906.50	19.500	906.50	20.131
28	906.50	903.00	900.00	19.717	900.00	19.829
29	900.00	898.00	893.00	19.578	893.00	20.039
30	893.00	889.00	883.00	19.670	883.00	20.352
31	883.00	880.50	878.00	19.805	878.00	20.731
32	878.00	875.00	873.50	20.064	873.50	20.465
33	873.50	868.00	866.00	20.087	866.00	20.407
34	866.00	862.50	859.00	20.230	859.00	20.608
35	859.00	857.50	845.50	20.410	845.50	21.091
36	845.50	842.50	837.00	20.514	837.00	20.730
37	837.00	835.00	825.50	20.459	825.50	21.076
38	825.50	823.50	820.50	20.833	820.50	21.262
39	820.50	818.00	814.00	20.958	814.00	21.370
40	814.00	811.00	809.50	21.124	809.50	21.375
41	809.50	806.00	799.50	21.155	799.50	21.654
42	799.50	797.00	789.50	21.291	789.50	21.792
43	789.50	787.50	779.50	21.475	779.50	22.011
44	779.50	776.00	772.50	21.810	772.50	22.018
45	772.50	770.50	767.50	21.811	767.50	22.028
46	767.50	763.50	758.50	21.917	758.50	22.191
47	758.50	756.50	743.50	21.980	743.50	22.931
48	743.50	739.00	736.50	22.493	736.50	22.623
49	736.50	734.50	732.00	22.459	732.00	22.593
50	732.00	726.50	724.50	22.505	724.50	22.583
51	724.50	722.50	718.00	22.531	718.00	22.710
52	718.00	715.50	711.50	22.609	711.50	22.754
53	711.50	704.00	699.50	22.682	699.50	22.788
54	699.50	696.50	691.50	22.737	691.50	22.872
55	691.50	689.00	684.50	22.796	684.50	22.857
56	684.50	682.00	678.50	22.799	678.50	22.874
57	678.50	677.50	669.00	22.841	669.00	22.947
58	669.00	665.50	658.00	22.909	658.00	23.039
59	658.00	655.00	649.50	22.974	649.50	23.052
60	649.50	647.00	631.50	23.029	631.50	23.141
61	631.50	628.50	616.50	23.115	616.50	23.254
62	616.50	613.50	605.00	23.226	605.00	23.341
63	605.00	602.50	600.00	23.323	600.00	23.431
64	600.00	597.50	596.50	23.320	596.50	23.384
65	596.50	594.00	584.00	23.330	584.00	23.590
66	584.00	577.50	570.00	23.374	570.00	23.477
67	570.00	568.50	566.00	23.442	566.00	23.499
68	566.00	561.00	558.00	23.426	558.00	23.517
69	558.00	554.50	551.50	23.441	551.50	23.527
70	551.50	549.50	542.00	23.486	542.00	23.563
71	542.00	540.00	513.00	23.526	513.00	24.268
72	513.00	510.50	503.50	24.220	503.50	24.288
73	503.50	502.00	482.00	24.249	482.00	24.795
74	482.00	479.50	413.50	24.758	413.50	26.668
75	413.50	411.50	408.50	26.583	408.50	26.715
76	408.50	386.50	299.50	17.591	299.50	28.443
77	299.50	283.00	256.50	27.736	256.50	32.077
78	256.50	247.50	225.00	31.552	225.00	34.016
79	225.00	207.50	195.00	30.654	195.00	40.357

ﾃﾞｰﾀﾘｽﾄ
nm	%T
1100.00	17.679
1099.50	22.253
1099.00	37.481
1098.50	39.924
1098.00	111.608
1097.50	-51.099
1097.00	-55.241
1096.50	23.930
1096.00	129.860
1095.50	245.517
1095.00	336.730
1094.50	384.639
1094.00	367.072
1093.50	278.403
1093.00	152.285
1092.50	38.938
1092.00	-22.976
1091.50	-13.384
1091.00	167.181
1090.50	79.600
1090.00	78.592
1089.50	76.782
1089.00	79.883
1088.50	63.955
1088.00	45.369
1087.50	51.977
1087.00	80.450
1086.50	76.695
1086.00	68.517
1085.50	68.153
1085.00	63.465
1084.50	57.812
1084.00	68.200
1083.50	43.706
1083.00	17.381
1082.50	-2.340
1082.00	2.420
1081.50	7.186
1081.00	13.002
1080.50	34.840
1080.00	49.956
1079.50	59.229
1079.00	59.481
1078.50	49.522
1078.00	44.380
1077.50	32.188
1077.00	17.825
1076.50	7.001
1076.00	-6.025
1075.50	-9.705
1075.00	-17.803
1074.50	-12.640
1074.00	-6.276
1073.50	7.562
1073.00	11.219
1072.50	22.191
1072.00	26.777
1071.50	23.461
1071.00	29.845
1070.50	37.191
1070.00	40.189
1069.50	34.820
1069.00	30.091
1068.50	25.443
1068.00	17.347
1067.50	13.589
1067.00	14.532
1066.50	28.354
1066.00	30.121
1065.50	27.702
1065.00	22.636
1064.50	15.746
1064.00	4.719
1063.50	4.697
1063.00	6.278
1062.50	8.305
1062.00	15.589
1061.50	23.380
1061.00	27.881
1060.50	27.679
1060.00	23.452
1059.50	23.798
1059.00	21.998
1058.50	19.708
1058.00	20.069
1057.50	21.933
1057.00	22.347
1056.50	22.228
1056.00	22.807
1055.50	23.723
1055.00	21.835
1054.50	18.858
1054.00	16.771
1053.50	16.404
1053.00	18.432
1052.50	19.135
1052.00	19.291
1051.50	18.957
1051.00	18.487
1050.50	18.402
1050.00	18.633
1049.50	17.635
1049.00	18.179
1048.50	19.808
1048.00	21.145
1047.50	21.439
1047.00	20.652
1046.50	20.914
1046.00	20.110
1045.50	19.372
1045.00	19.015
1044.50	18.712
1044.00	17.704
1043.50	17.297
1043.00	17.388
1042.50	17.639
1042.00	17.726
1041.50	18.202
1041.00	18.543
1040.50	18.879
1040.00	18.804
1039.50	19.167
1039.00	18.816
1038.50	18.803
1038.00	19.041
1037.50	19.157
1037.00	19.092
1036.50	18.787
1036.00	18.303
1035.50	18.270
1035.00	17.703
1034.50	17.408
1034.00	17.402
1033.50	17.833
1033.00	17.938
1032.50	18.049
1032.00	18.105
1031.50	18.275
1031.00	18.452
1030.50	18.612
1030.00	18.698
1029.50	18.898
1029.00	19.119
1028.50	19.583
1028.00	19.686
1027.50	19.645
1027.00	20.159
1026.50	20.446
1026.00	20.841
1025.50	21.158
1025.00	21.375
1024.50	21.282
1024.00	21.497
1023.50	21.559
1023.00	21.183
1022.50	20.726
1022.00	20.615
1021.50	20.451
1021.00	19.803
1020.50	19.319
1020.00	19.034
1019.50	18.740
1019.00	18.651
1018.50	18.785
1018.00	18.837
1017.50	18.825
1017.00	19.094
1016.50	19.161
1016.00	19.231
1015.50	18.883
1015.00	18.984
1014.50	19.035
1014.00	19.001
1013.50	19.149
1013.00	19.146
1012.50	19.311
1012.00	19.404
1011.50	19.425
1011.00	19.264
1010.50	19.257
1010.00	19.100
1009.50	19.039
1009.00	19.118
1008.50	19.170
1008.00	19.200
1007.50	19.191
1007.00	19.125
1006.50	18.992
1006.00	18.699
1005.50	18.731
1005.00	18.804
1004.50	18.840
1004.00	19.016
1003.50	19.325
1003.00	19.412
1002.50	19.391
1002.00	19.321
1001.50	19.184
1001.00	18.966
1000.50	18.935
1000.00	18.971
999.50	19.073
999.00	19.092
998.50	19.167
998.00	19.206
997.50	19.143
997.00	19.117
996.50	19.136
996.00	19.152
995.50	19.170
995.00	19.292
994.50	19.377
994.00	19.312
993.50	19.234
993.00	19.116
992.50	18.876
992.00	18.860
991.50	18.891
991.00	19.016
990.50	19.145
990.00	19.281
989.50	19.356
989.00	19.377
988.50	19.401
988.00	19.335
987.50	19.275
987.00	19.200
986.50	19.129
986.00	19.099
985.50	18.918
985.00	18.900
984.50	18.901
984.00	18.871
983.50	19.020
983.00	19.082
982.50	19.109
982.00	19.120
981.50	19.199
981.00	19.235
980.50	19.241
980.00	19.235
979.50	19.136
979.00	19.003
978.50	18.984
978.00	19.026
977.50	19.135
977.00	19.255
976.50	19.465
976.00	19.480
975.50	19.453
975.00	19.246
974.50	19.058
974.00	18.934
973.50	18.919
973.00	18.876
972.50	18.917
972.00	18.966
971.50	19.193
971.00	19.344
970.50	19.463
970.00	19.572
969.50	19.568
969.00	19.529
968.50	19.580
968.00	19.488
967.50	19.332
967.00	19.296
966.50	19.182
966.00	19.115
965.50	19.136
965.00	19.101
964.50	19.151
964.00	19.238
963.50	19.329
963.00	19.371
962.50	19.340
962.00	19.182
961.50	19.199
961.00	19.184
960.50	19.093
960.00	19.311
959.50	19.394
959.00	19.542
958.50	19.620
958.00	19.555
957.50	19.495
957.00	19.392
956.50	19.303
956.00	19.130
955.50	19.125
955.00	18.997
954.50	19.205
954.00	19.371
953.50	19.450
953.00	19.550
952.50	19.556
952.00	19.566
951.50	19.506
951.00	19.337
950.50	19.232
950.00	19.170
949.50	19.271
949.00	19.299
948.50	19.457
948.00	19.519
947.50	19.439
947.00	19.312
946.50	19.361
946.00	19.383
945.50	19.349
945.00	19.284
944.50	19.338
944.00	19.366
943.50	19.249
943.00	19.209
942.50	19.302
942.00	19.372
941.50	19.471
941.00	19.676
940.50	19.644
940.00	19.620
939.50	19.589
939.00	19.629
938.50	19.633
938.00	19.544
937.50	19.577
937.00	19.681
936.50	19.554
936.00	19.537
935.50	19.569
935.00	19.607
934.50	19.657
934.00	19.561
933.50	19.507
933.00	19.514
932.50	19.497
932.00	19.510
931.50	19.481
931.00	19.578
930.50	19.497
930.00	19.573
929.50	19.584
929.00	19.515
928.50	19.480
928.00	19.502
927.50	19.673
927.00	19.659
926.50	19.687
926.00	19.619
925.50	19.740
925.00	19.647
924.50	19.614
924.00	19.763
923.50	19.713
923.00	19.741
922.50	19.877
922.00	19.955
921.50	19.894
921.00	19.766
920.50	19.634
920.00	19.702
919.50	19.719
919.00	19.612
918.50	19.726
918.00	19.634
917.50	19.630
917.00	19.679
916.50	19.636
916.00	19.548
915.50	19.417
915.00	19.497
914.50	19.535
914.00	19.584
913.50	19.559
913.00	19.662
912.50	19.750
912.00	19.758
911.50	19.707
911.00	19.548
910.50	19.500
910.00	19.509
909.50	19.546
909.00	19.642
908.50	19.609
908.00	19.783
907.50	19.990
907.00	20.100
906.50	20.131
906.00	20.075
905.50	20.030
905.00	19.973
904.50	19.879
904.00	19.770
903.50	19.732
903.00	19.717
902.50	19.754
902.00	19.826
901.50	19.778
901.00	19.801
900.50	19.820
900.00	19.829
899.50	19.694
899.00	19.655
898.50	19.626
898.00	19.578
897.50	19.606
897.00	19.721
896.50	19.739
896.00	19.742
895.50	19.796
895.00	19.850
894.50	19.917
894.00	19.924
893.50	19.945
893.00	20.039
892.50	19.908
892.00	19.878
891.50	19.780
891.00	19.615
890.50	19.617
890.00	19.785
889.50	19.802
889.00	19.670
888.50	19.724
888.00	19.735
887.50	19.778
887.00	19.697
886.50	19.718
886.00	19.698
885.50	19.757
885.00	19.973
884.50	20.142
884.00	20.178
883.50	20.208
883.00	20.352
882.50	20.328
882.00	20.105
881.50	20.070
881.00	19.921
880.50	19.805
880.00	19.812
879.50	19.999
879.00	20.240
878.50	20.538
878.00	20.731
877.50	20.688
877.00	20.574
876.50	20.421
876.00	20.262
875.50	20.159
875.00	20.064
874.50	20.228
874.00	20.409
873.50	20.465
873.00	20.423
872.50	20.229
872.00	20.222
871.50	20.291
871.00	20.407
870.50	20.323
870.00	20.253
869.50	20.232
869.00	20.149
868.50	20.116
868.00	20.087
867.50	20.148
867.00	20.276
866.50	20.275
866.00	20.407
865.50	20.338
865.00	20.369
864.50	20.303
864.00	20.322
863.50	20.310
863.00	20.286
862.50	20.230
862.00	20.309
861.50	20.380
861.00	20.384
860.50	20.510
860.00	20.598
859.50	20.595
859.00	20.608
858.50	20.478
858.00	20.501
857.50	20.410
857.00	20.425
856.50	20.436
856.00	20.493
855.50	20.466
855.00	20.564
854.50	20.665
854.00	20.529
853.50	20.534
853.00	20.421
852.50	20.495
852.00	20.432
851.50	20.460
851.00	20.593
850.50	20.580
850.00	20.572
849.50	20.553
849.00	20.466
848.50	20.402
848.00	20.462
847.50	20.646
847.00	20.693
846.50	20.809
846.00	20.896
845.50	21.091
845.00	21.023
844.50	20.896
844.00	20.823
843.50	20.657
843.00	20.539
842.50	20.514
842.00	20.530
841.50	20.571
841.00	20.614
840.50	20.715
840.00	20.722
839.50	20.669
839.00	20.595
838.50	20.638
838.00	20.648
837.50	20.671
837.00	20.730
836.50	20.711
836.00	20.698
835.50	20.507
835.00	20.459
834.50	20.485
834.00	20.534
833.50	20.629
833.00	20.636
832.50	20.652
832.00	20.624
831.50	20.691
831.00	20.707
830.50	20.721
830.00	20.776
829.50	20.779
829.00	20.868
828.50	20.825
828.00	20.833
827.50	20.857
827.00	20.891
826.50	21.050
826.00	21.066
825.50	21.076
825.00	20.906
824.50	20.876
824.00	20.865
823.50	20.833
823.00	20.888
822.50	20.891
822.00	20.961
821.50	20.991
821.00	21.158
820.50	21.262
820.00	21.246
819.50	21.252
819.00	21.215
818.50	21.126
818.00	20.958
817.50	20.961
817.00	21.007
816.50	21.047
816.00	21.081
815.50	21.226
815.00	21.333
814.50	21.336
814.00	21.370
813.50	21.355
813.00	21.285
812.50	21.243
812.00	21.271
811.50	21.206
811.00	21.124
810.50	21.193
810.00	21.280
809.50	21.375
809.00	21.316
808.50	21.294
808.00	21.267
807.50	21.265
807.00	21.258
806.50	21.237
806.00	21.155
805.50	21.223
805.00	21.333
804.50	21.424
804.00	21.451
803.50	21.530
803.00	21.539
802.50	21.532
802.00	21.558
801.50	21.557
801.00	21.566
800.50	21.615
800.00	21.617
799.50	21.654
799.00	21.531
798.50	21.471
798.00	21.386
797.50	21.298
797.00	21.291
796.50	21.390
796.00	21.433
795.50	21.459
795.00	21.588
794.50	21.626
794.00	21.648
793.50	21.693
793.00	21.673
792.50	21.714
792.00	21.723
791.50	21.784
791.00	21.778
790.50	21.764
790.00	21.772
789.50	21.792
789.00	21.687
788.50	21.557
788.00	21.523
787.50	21.475
787.00	21.496
786.50	21.578
786.00	21.631
785.50	21.666
785.00	21.702
784.50	21.757
784.00	21.761
783.50	21.733
783.00	21.765
782.50	21.794
782.00	21.829
781.50	21.797
781.00	21.842
780.50	21.877
780.00	21.931
779.50	22.011
779.00	22.009
778.50	21.967
778.00	21.954
777.50	21.927
777.00	21.903
776.50	21.838
776.00	21.810
775.50	21.856
775.00	21.922
774.50	21.939
774.00	21.978
773.50	21.984
773.00	22.012
772.50	22.018
772.00	21.954
771.50	21.876
771.00	21.815
770.50	21.811
770.00	21.883
769.50	21.923
769.00	21.950
768.50	21.997
768.00	22.014
767.50	22.028
767.00	22.022
766.50	21.968
766.00	21.968
765.50	21.983
765.00	22.003
764.50	21.991
764.00	21.943
763.50	21.917
763.00	21.959
762.50	21.947
762.00	21.973
761.50	22.007
761.00	22.045
760.50	22.092
760.00	22.117
759.50	22.138
759.00	22.172
758.50	22.191
758.00	22.151
757.50	22.090
757.00	22.029
756.50	21.980
756.00	21.982
755.50	22.003
755.00	22.023
754.50	22.066
754.00	22.082
753.50	22.077
753.00	22.044
752.50	22.040
752.00	22.079
751.50	22.132
751.00	22.139
750.50	22.190
750.00	22.210
749.50	22.256
749.00	22.294
748.50	22.363
748.00	22.439
747.50	22.532
747.00	22.594
746.50	22.631
746.00	22.699
745.50	22.767
745.00	22.820
744.50	22.863
744.00	22.894
743.50	22.931
743.00	22.905
742.50	22.875
742.00	22.829
741.50	22.789
741.00	22.727
740.50	22.669
740.00	22.584
739.50	22.508
739.00	22.493
738.50	22.508
738.00	22.533
737.50	22.553
737.00	22.592
736.50	22.623
736.00	22.582
735.50	22.514
735.00	22.470
734.50	22.459
734.00	22.473
733.50	22.508
733.00	22.534
732.50	22.563
732.00	22.593
731.50	22.590
731.00	22.575
730.50	22.543
730.00	22.531
729.50	22.541
729.00	22.543
728.50	22.549
728.00	22.543
727.50	22.513
727.00	22.513
726.50	22.505
726.00	22.512
725.50	22.535
725.00	22.579
724.50	22.583
724.00	22.575
723.50	22.573
723.00	22.552
722.50	22.531
722.00	22.534
721.50	22.568
721.00	22.596
720.50	22.613
720.00	22.654
719.50	22.672
719.00	22.700
718.50	22.708
718.00	22.710
717.50	22.689
717.00	22.663
716.50	22.645
716.00	22.628
715.50	22.609
715.00	22.627
714.50	22.639
714.00	22.662
713.50	22.695
713.00	22.715
712.50	22.730
712.00	22.743
711.50	22.754
711.00	22.731
710.50	22.725
710.00	22.712
709.50	22.704
709.00	22.702
708.50	22.682
708.00	22.708
707.50	22.707
707.00	22.712
706.50	22.704
706.00	22.701
705.50	22.708
705.00	22.706
704.50	22.708
704.00	22.682
703.50	22.686
703.00	22.684
702.50	22.696
702.00	22.711
701.50	22.705
701.00	22.734
700.50	22.766
700.00	22.780
699.50	22.788
699.00	22.782
698.50	22.776
698.00	22.757
697.50	22.747
697.00	22.740
696.50	22.737
696.00	22.745
695.50	22.757
695.00	22.772
694.50	22.766
694.00	22.791
693.50	22.818
693.00	22.837
692.50	22.868
692.00	22.867
691.50	22.872
691.00	22.850
690.50	22.829
690.00	22.824
689.50	22.798
689.00	22.796
688.50	22.811
688.00	22.830
687.50	22.822
687.00	22.830
686.50	22.822
686.00	22.836
685.50	22.853
685.00	22.847
684.50	22.857
684.00	22.855
683.50	22.843
683.00	22.834
682.50	22.803
682.00	22.799
681.50	22.800
681.00	22.825
680.50	22.834
680.00	22.862
679.50	22.860
679.00	22.867
678.50	22.874
678.00	22.846
677.50	22.841
677.00	22.844
676.50	22.846
676.00	22.861
675.50	22.868
675.00	22.886
674.50	22.888
674.00	22.897
673.50	22.892
673.00	22.896
672.50	22.875
672.00	22.884
671.50	22.906
671.00	22.904
670.50	22.913
670.00	22.922
669.50	22.929
669.00	22.947
668.50	22.942
668.00	22.937
667.50	22.920
667.00	22.919
666.50	22.915
666.00	22.918
665.50	22.909
665.00	22.918
664.50	22.919
664.00	22.933
663.50	22.944
663.00	22.937
662.50	22.947
662.00	22.949
661.50	22.948
661.00	22.957
660.50	22.961
660.00	22.965
659.50	22.974
659.00	23.000
658.50	23.024
658.00	23.039
657.50	23.034
657.00	23.026
656.50	23.015
656.00	22.985
655.50	22.985
655.00	22.974
654.50	22.988
654.00	23.006
653.50	23.034
653.00	23.024
652.50	23.021
652.00	23.032
651.50	23.039
651.00	23.045
650.50	23.049
650.00	23.048
649.50	23.052
649.00	23.042
648.50	23.039
648.00	23.033
647.50	23.036
647.00	23.029
646.50	23.048
646.00	23.058
645.50	23.059
645.00	23.065
644.50	23.071
644.00	23.070
643.50	23.069
643.00	23.070
642.50	23.065
642.00	23.065
641.50	23.080
641.00	23.105
640.50	23.109
640.00	23.091
639.50	23.076
639.00	23.093
638.50	23.085
638.00	23.097
637.50	23.103
637.00	23.116
636.50	23.131
636.00	23.130
635.50	23.117
635.00	23.116
634.50	23.118
634.00	23.128
633.50	23.125
633.00	23.131
632.50	23.125
632.00	23.134
631.50	23.141
631.00	23.141
630.50	23.130
630.00	23.131
629.50	23.135
629.00	23.123
628.50	23.115
628.00	23.136
627.50	23.156
627.00	23.159
626.50	23.154
626.00	23.157
625.50	23.161
625.00	23.161
624.50	23.164
624.00	23.149
623.50	23.157
623.00	23.163
622.50	23.175
622.00	23.187
621.50	23.192
621.00	23.203
620.50	23.221
620.00	23.224
619.50	23.224
619.00	23.219
618.50	23.216
618.00	23.225
617.50	23.237
617.00	23.243
616.50	23.254
616.00	23.252
615.50	23.243
615.00	23.250
614.50	23.237
614.00	23.227
613.50	23.226
613.00	23.238
612.50	23.247
612.00	23.266
611.50	23.287
611.00	23.297
610.50	23.304
610.00	23.313
609.50	23.304
609.00	23.294
608.50	23.288
608.00	23.304
607.50	23.301
607.00	23.307
606.50	23.315
606.00	23.333
605.50	23.338
605.00	23.341
604.50	23.325
604.00	23.336
603.50	23.330
603.00	23.325
602.50	23.323
602.00	23.334
601.50	23.356
601.00	23.386
600.50	23.425
600.00	23.431
599.50	23.413
599.00	23.384
598.50	23.354
598.00	23.342
597.50	23.320
597.00	23.340
596.50	23.384
596.00	23.376
595.50	23.366
595.00	23.360
594.50	23.351
594.00	23.330
593.50	23.356
593.00	23.348
592.50	23.379
592.00	23.409
591.50	23.417
591.00	23.430
590.50	23.417
590.00	23.411
589.50	23.453
589.00	23.457
588.50	23.462
588.00	23.456
587.50	23.478
587.00	23.489
586.50	23.511
586.00	23.507
585.50	23.536
585.00	23.569
584.50	23.587
584.00	23.590
583.50	23.551
583.00	23.505
582.50	23.476
582.00	23.452
581.50	23.427
581.00	23.404
580.50	23.413
580.00	23.404
579.50	23.404
579.00	23.388
578.50	23.378
578.00	23.376
577.50	23.374
577.00	23.384
576.50	23.376
576.00	23.383
575.50	23.406
575.00	23.429
574.50	23.429
574.00	23.436
573.50	23.437
573.00	23.421
572.50	23.427
572.00	23.434
571.50	23.457
571.00	23.462
570.50	23.476
570.00	23.477
569.50	23.459
569.00	23.444
568.50	23.442
568.00	23.457
567.50	23.474
567.00	23.491
566.50	23.494
566.00	23.499
565.50	23.488
565.00	23.483
564.50	23.481
564.00	23.478
563.50	23.493
563.00	23.487
562.50	23.473
562.00	23.455
561.50	23.429
561.00	23.426
560.50	23.442
560.00	23.461
559.50	23.486
559.00	23.509
558.50	23.516
558.00	23.517
557.50	23.498
557.00	23.481
556.50	23.462
556.00	23.459
555.50	23.447
555.00	23.445
554.50	23.441
554.00	23.455
553.50	23.470
553.00	23.497
552.50	23.523
552.00	23.524
551.50	23.527
551.00	23.522
550.50	23.526
550.00	23.499
549.50	23.486
549.00	23.498
548.50	23.503
548.00	23.513
547.50	23.515
547.00	23.514
546.50	23.506
546.00	23.511
545.50	23.504
545.00	23.502
544.50	23.513
544.00	23.526
543.50	23.553
543.00	23.548
542.50	23.561
542.00	23.563
541.50	23.557
541.00	23.558
540.50	23.537
540.00	23.526
539.50	23.533
539.00	23.553
538.50	23.574
538.00	23.583
537.50	23.601
537.00	23.626
536.50	23.632
536.00	23.630
535.50	23.640
535.00	23.646
534.50	23.659
534.00	23.675
533.50	23.678
533.00	23.675
532.50	23.670
532.00	23.674
531.50	23.696
531.00	23.703
530.50	23.735
530.00	23.765
529.50	23.786
529.00	23.801
528.50	23.802
528.00	23.800
527.50	23.797
527.00	23.788
526.50	23.802
526.00	23.818
525.50	23.832
525.00	23.857
524.50	23.876
524.00	23.878
523.50	23.900
523.00	23.910
522.50	23.944
522.00	23.982
521.50	24.018
521.00	24.051
520.50	24.081
520.00	24.102
519.50	24.108
519.00	24.119
518.50	24.119
518.00	24.139
517.50	24.159
517.00	24.178
516.50	24.188
516.00	24.179
515.50	24.192
515.00	24.208
514.50	24.217
514.00	24.229
513.50	24.245
513.00	24.268
512.50	24.268
512.00	24.263
511.50	24.246
511.00	24.232
510.50	24.220
510.00	24.229
509.50	24.225
509.00	24.230
508.50	24.242
508.00	24.250
507.50	24.249
507.00	24.251
506.50	24.245
506.00	24.237
505.50	24.241
505.00	24.251
504.50	24.263
504.00	24.280
503.50	24.288
503.00	24.277
502.50	24.260
502.00	24.249
501.50	24.257
501.00	24.271
500.50	24.298
500.00	24.337
499.50	24.372
499.00	24.384
498.50	24.383
498.00	24.381
497.50	24.372
497.00	24.380
496.50	24.388
496.00	24.396
495.50	24.430
495.00	24.450
494.50	24.471
494.00	24.486
493.50	24.500
493.00	24.513
492.50	24.515
492.00	24.518
491.50	24.516
491.00	24.535
490.50	24.554
490.00	24.574
489.50	24.578
489.00	24.583
488.50	24.592
488.00	24.616
487.50	24.629
487.00	24.662
486.50	24.686
486.00	24.729
485.50	24.760
485.00	24.764
484.50	24.747
484.00	24.760
483.50	24.784
483.00	24.788
482.50	24.792
482.00	24.795
481.50	24.782
481.00	24.787
480.50	24.759
480.00	24.761
479.50	24.758
479.00	24.776
478.50	24.802
478.00	24.818
477.50	24.808
477.00	24.811
476.50	24.825
476.00	24.836
475.50	24.858
475.00	24.878
474.50	24.895
474.00	24.916
473.50	24.913
473.00	24.909
472.50	24.895
472.00	24.897
471.50	24.893
471.00	24.910
470.50	24.928
470.00	24.947
469.50	24.973
469.00	24.996
468.50	25.019
468.00	25.010
467.50	25.011
467.00	25.021
466.50	25.027
466.00	25.044
465.50	25.045
465.00	25.052
464.50	25.054
464.00	25.067
463.50	25.091
463.00	25.105
462.50	25.117
462.00	25.144
461.50	25.183
461.00	25.182
460.50	25.190
460.00	25.193
459.50	25.194
459.00	25.214
458.50	25.245
458.00	25.266
457.50	25.279
457.00	25.302
456.50	25.332
456.00	25.345
455.50	25.341
455.00	25.360
454.50	25.355
454.00	25.346
453.50	25.342
453.00	25.337
452.50	25.353
452.00	25.389
451.50	25.428
451.00	25.435
450.50	25.459
450.00	25.459
449.50	25.449
449.00	25.441
448.50	25.441
448.00	25.455
447.50	25.479
447.00	25.510
446.50	25.503
446.00	25.486
445.50	25.495
445.00	25.520
444.50	25.553
444.00	25.570
443.50	25.594
443.00	25.601
442.50	25.590
442.00	25.589
441.50	25.620
441.00	25.607
440.50	25.636
440.00	25.683
439.50	25.703
439.00	25.710
438.50	25.732
438.00	25.734
437.50	25.734
437.00	25.741
436.50	25.732
436.00	25.735
435.50	25.737
435.00	25.753
434.50	25.819
434.00	25.836
433.50	25.847
433.00	25.863
432.50	25.880
432.00	25.905
431.50	25.939
431.00	25.969
430.50	25.992
430.00	26.001
429.50	25.990
429.00	25.968
428.50	25.958
428.00	25.987
427.50	26.038
427.00	26.103
426.50	26.139
426.00	26.175
425.50	26.195
425.00	26.210
424.50	26.200
424.00	26.200
423.50	26.209
423.00	26.233
422.50	26.259
422.00	26.276
421.50	26.294
421.00	26.324
420.50	26.356
420.00	26.393
419.50	26.412
419.00	26.445
418.50	26.469
418.00	26.490
417.50	26.489
417.00	26.504
416.50	26.514
416.00	26.534
415.50	26.583
415.00	26.616
414.50	26.646
414.00	26.660
413.50	26.668
413.00	26.636
412.50	26.603
412.00	26.585
411.50	26.583
411.00	26.600
410.50	26.612
410.00	26.657
409.50	26.684
409.00	26.698
408.50	26.715
408.00	26.698
407.50	26.679
407.00	26.669
406.50	26.675
406.00	26.663
405.50	26.646
405.00	26.631
404.50	26.592
404.00	26.552
403.50	26.476
403.00	26.410
402.50	26.338
402.00	26.305
401.50	26.280
401.00	26.233
400.50	26.167
400.00	26.054
399.50	25.905
399.00	25.716
398.50	25.473
398.00	25.246
397.50	25.029
397.00	24.776
396.50	24.477
396.00	24.132
395.50	23.735
395.00	23.301
394.50	22.816
394.00	22.355
393.50	21.904
393.00	21.419
392.50	20.921
392.00	20.421
391.50	19.909
391.00	19.421
390.50	19.025
390.00	18.646
389.50	18.323
389.00	18.075
388.50	17.912
388.00	17.780
387.50	17.660
387.00	17.604
386.50	17.591
386.00	17.592
385.50	17.597
385.00	17.602
384.50	17.633
384.00	17.656
383.50	17.701
383.00	17.744
382.50	17.750
382.00	17.764
381.50	17.805
381.00	17.837
380.50	17.897
380.00	17.934
379.50	17.959
379.00	17.997
378.50	18.027
378.00	18.040
377.50	18.056
377.00	18.068
376.50	18.089
376.00	18.137
375.50	18.151
375.00	18.193
374.50	18.234
374.00	18.249
373.50	18.309
373.00	18.356
372.50	18.415
372.00	18.497
371.50	18.568
371.00	18.609
370.50	18.653
370.00	18.680
369.50	18.688
369.00	18.702
368.50	18.720
368.00	18.788
367.50	18.870
367.00	18.937
366.50	18.981
366.00	19.017
365.50	19.051
365.00	19.073
364.50	19.120
364.00	19.143
363.50	19.178
363.00	19.221
362.50	19.265
362.00	19.304
361.50	19.332
361.00	19.360
360.50	19.418
360.00	19.468
359.50	19.486
359.00	19.529
358.50	19.571
358.00	19.605
357.50	19.675
357.00	19.748
356.50	19.807
356.00	19.852
355.50	19.884
355.00	19.931
354.50	19.956
354.00	19.981
353.50	20.061
353.00	20.144
352.50	20.222
352.00	20.294
351.50	20.377
351.00	20.412
350.50	20.442
350.00	20.471
349.50	20.529
349.00	20.589
348.50	20.658
348.00	20.749
347.50	20.836
347.00	20.904
346.50	20.981
346.00	21.073
345.50	21.169
345.00	21.248
344.50	21.355
344.00	21.443
343.50	21.530
343.00	21.662
342.50	21.641
342.00	21.616
341.50	21.717
341.00	21.957
340.50	22.359
340.00	22.871
339.50	23.384
339.00	23.857
338.50	24.226
338.00	24.445
337.50	24.535
337.00	24.576
336.50	24.617
336.00	24.827
335.50	24.962
335.00	25.090
334.50	25.219
334.00	25.318
333.50	25.413
333.00	25.532
332.50	25.654
332.00	25.798
331.50	25.955
331.00	26.106
330.50	26.206
330.00	26.296
329.50	26.386
329.00	26.492
328.50	26.595
328.00	26.682
327.50	26.781
327.00	26.866
326.50	26.945
326.00	27.025
325.50	27.092
325.00	27.140
324.50	27.192
324.00	27.293
323.50	27.357
323.00	27.400
322.50	27.416
322.00	27.443
321.50	27.453
321.00	27.477
320.50	27.522
320.00	27.571
319.50	27.631
319.00	27.688
318.50	27.723
318.00	27.744
317.50	27.742
317.00	27.755
316.50	27.768
316.00	27.805
315.50	27.799
315.00	27.819
314.50	27.832
314.00	27.874
313.50	27.887
313.00	27.924
312.50	27.965
312.00	28.003
311.50	28.036
311.00	28.077
310.50	28.083
310.00	28.078
309.50	28.090
309.00	28.131
308.50	28.134
308.00	28.160
307.50	28.178
307.00	28.224
306.50	28.241
306.00	28.270
305.50	28.305
305.00	28.323
304.50	28.345
304.00	28.372
303.50	28.410
303.00	28.406
302.50	28.397
302.00	28.372
301.50	28.365
301.00	28.376
300.50	28.421
300.00	28.437
299.50	28.443
299.00	28.436
298.50	28.422
298.00	28.389
297.50	28.355
297.00	28.308
296.50	28.331
296.00	28.312
295.50	28.319
295.00	28.302
294.50	28.298
294.00	28.287
293.50	28.307
293.00	28.287
292.50	28.258
292.00	28.242
291.50	28.187
291.00	28.152
290.50	28.105
290.00	28.076
289.50	28.055
289.00	27.998
288.50	27.958
288.00	27.923
287.50	27.893
287.00	27.884
286.50	27.866
286.00	27.873
285.50	27.876
285.00	27.875
284.50	27.824
284.00	27.796
283.50	27.750
283.00	27.736
282.50	27.740
282.00	27.758
281.50	27.789
281.00	27.835
280.50	27.884
280.00	27.926
279.50	27.954
279.00	27.986
278.50	28.000
278.00	28.029
277.50	28.063
277.00	28.119
276.50	28.180
276.00	28.253
275.50	28.356
275.00	28.460
274.50	28.560
274.00	28.660
273.50	28.767
273.00	28.861
272.50	28.955
272.00	29.066
271.50	29.152
271.00	29.261
270.50	29.410
270.00	29.545
269.50	29.671
269.00	29.804
268.50	29.933
268.00	30.076
267.50	30.190
267.00	30.324
266.50	30.465
266.00	30.601
265.50	30.748
265.00	30.884
264.50	30.998
264.00	31.120
263.50	31.267
263.00	31.373
262.50	31.478
262.00	31.588
261.50	31.680
261.00	31.778
260.50	31.815
260.00	31.864
259.50	31.911
259.00	31.955
258.50	32.007
258.00	32.030
257.50	32.043
257.00	32.060
256.50	32.077
256.00	32.028
255.50	32.000
255.00	31.981
254.50	31.953
254.00	31.954
253.50	31.918
253.00	31.878
252.50	31.831
252.00	31.807
251.50	31.787
251.00	31.777
250.50	31.755
250.00	31.733
249.50	31.720
249.00	31.675
248.50	31.632
248.00	31.592
247.50	31.552
247.00	31.563
246.50	31.606
246.00	31.681
245.50	31.725
245.00	31.798
244.50	31.818
244.00	31.848
243.50	31.848
243.00	31.853
242.50	31.876
242.00	31.962
241.50	32.033
241.00	32.128
240.50	32.203
240.00	32.242
239.50	32.283
239.00	32.319
238.50	32.356
238.00	32.432
237.50	32.500
237.00	32.606
236.50	32.672
236.00	32.740
235.50	32.796
235.00	32.893
234.50	32.967
234.00	33.084
233.50	33.198
233.00	33.269
232.50	33.335
232.00	33.393
231.50	33.459
231.00	33.471
230.50	33.524
230.00	33.597
229.50	33.691
229.00	33.758
228.50	33.785
228.00	33.833
227.50	33.860
227.00	33.916
226.50	33.945
226.00	33.986
225.50	34.014
225.00	34.016
224.50	34.001
224.00	33.966
223.50	33.938
223.00	33.910
222.50	33.901
222.00	33.894
221.50	33.838
221.00	33.792
220.50	33.705
220.00	33.647
219.50	33.542
219.00	33.439
218.50	33.352
218.00	33.240
217.50	33.109
217.00	32.971
216.50	32.805
216.00	32.713
215.50	32.627
215.00	32.502
214.50	32.350
214.00	32.180
213.50	31.995
213.00	31.814
212.50	31.630
212.00	31.472
211.50	31.352
211.00	31.248
210.50	31.145
210.00	31.031
209.50	30.884
209.00	30.801
208.50	30.756
208.00	30.671
207.50	30.654
207.00	30.733
206.50	30.883
206.00	31.081
205.50	31.267
205.00	31.515
204.50	31.827
204.00	32.193
203.50	32.615
203.00	33.150
202.50	33.745
202.00	34.432
201.50	35.096
201.00	35.717
200.50	36.306
200.00	36.836
199.50	37.344
199.00	37.809
198.50	38.242
198.00	38.661
197.50	39.089
197.00	39.397
196.50	39.660
196.00	40.015
195.50	40.199
195.00	40.357
194.50	40.317
194.00	40.185
193.50	40.087
193.00	39.933
192.50	39.781
192.00	39.565
191.50	39.349
191.00	39.146
190.50	39.003
190.00	38.809

