ｻﾝﾌﾟﾙ:	Ag_190-1100_600_1_05_R
ﾌｧｲﾙ名:	Ag_190-1100_600_1_05_R.UDS
分析日時:	'14:04:33, 09/20/2024
ｵﾍﾟﾚｰﾀ:	OB
ｺﾒﾝﾄ:	'

光度計
ﾓﾃﾞﾙ:	U-3900形分光光度計
ｼﾘｱﾙ No.:	'3004-010
ROM Ver.:	2J25300 07

装置条件
測定ﾓｰﾄﾞ:	波長ｽｷｬﾝ
ﾃﾞｰﾀﾓｰﾄﾞ:	%T
開始波長:	1100.00 nm
終了波長:	190.00 nm
ｽｷｬﾝｽﾋﾟｰﾄﾞ:	600 nm/min
ｻﾝﾌﾟﾘﾝｸﾞ間隔:	0.50 nm
初期待ち時間:	0 s
繰り返し周期:	0.0 min
測定回数:	1
測定前ｵｰﾄｾﾞﾛ:	Off
ｽﾘｯﾄ:	1 nm
ﾎﾄﾏﾙ電圧:	自動制御
光源切換ﾓｰﾄﾞ:	自動切換
光源切換波長:	340.00 nm
ﾍﾞｰｽﾗｲﾝ設定:	ﾕｰｻﾞ 1
高分解能測定:	Off
D2ﾗﾝﾌﾟ:	On
WIﾗﾝﾌﾟ:	On
R/S反転:	Off
ｾﾙ長:	10.0 mm

ﾋﾟｰｸ検出
検出方法:	Rectangular
感度:	1
しきい値:	0.0100

ﾋﾟｰｸ
ﾋﾟｰｸ No.	開始 (nm)	ﾋﾟｰｸ (nm)	終了 (nm)	高さ (%T)	ﾊﾞﾚｰ (nm)	ﾊﾞﾚｰ (%T)
1	1100.00	1099.00	1096.00	23.237	1096.00	419.845
2	1096.00	1090.50	1089.00	158.364	1089.00	272.653
3	1089.00	1083.50	1078.00	51.600	1078.00	189.200
4	1078.00	1053.00	1046.50	70.557	1046.50	78.384
5	1046.50	1043.50	1039.50	74.408	1039.50	76.226
6	1039.50	1034.50	1023.50	72.825	1023.50	82.929
7	1023.50	1019.50	1016.50	75.186	1016.50	77.930
8	1016.50	1014.00	1009.50	76.068	1009.50	77.064
9	1009.50	1004.50	994.00	75.762	994.00	77.768
10	994.00	991.00	988.50	76.422	988.50	78.234
11	988.50	982.00	976.50	77.279	976.50	78.019
12	976.50	971.00	968.50	76.863	968.50	77.750
13	968.50	962.00	958.50	76.986	958.50	78.451
14	958.50	956.50	954.00	77.429	954.00	79.674
15	954.00	950.50	947.00	77.280	947.00	77.986
16	947.00	943.50	940.00	77.253	940.00	79.435
17	940.00	934.00	931.00	77.802	931.00	79.638
18	931.00	929.00	927.50	78.522	927.50	79.150
19	927.50	925.00	919.50	78.443	919.50	79.797
20	919.50	917.00	913.00	78.216	913.00	80.155
21	913.00	911.00	907.00	78.653	907.00	80.626
22	907.00	904.50	900.50	78.943	900.50	80.745
23	900.50	894.50	891.50	79.300	891.50	81.522
24	891.50	889.00	883.00	79.551	883.00	81.191
25	883.00	880.50	878.50	79.781	878.50	81.796
26	878.50	875.00	871.50	80.359	871.50	82.318
27	871.50	868.50	866.00	78.670	866.00	81.687
28	866.00	863.50	861.50	80.462	861.50	82.497
29	861.50	858.50	852.00	80.072	852.00	82.781
30	852.00	848.00	845.00	81.779	845.00	83.187
31	845.00	839.50	833.50	81.779	833.50	83.495
32	833.50	832.50	824.00	82.960	824.00	84.076
33	824.00	821.50	815.50	83.134	815.50	84.821
34	815.50	813.00	800.50	84.041	800.50	85.735
35	800.50	798.50	791.00	85.107	791.00	86.277
36	791.00	787.50	785.50	85.845	785.50	86.394
37	785.50	783.00	780.50	86.005	780.50	86.716
38	780.50	777.50	775.50	86.182	775.50	86.938
39	775.50	769.50	767.00	86.578	767.00	86.983
40	767.00	762.50	758.00	86.598	758.00	87.622
41	758.00	755.00	744.00	86.753	744.00	88.977
42	744.00	738.00	733.50	87.945	733.50	88.289
43	733.50	731.50	728.00	88.048	728.00	88.497
44	728.00	721.50	718.00	88.068	718.00	88.541
45	718.00	715.00	713.00	88.101	713.00	88.496
46	713.00	708.50	706.50	88.357	706.50	88.568
47	706.50	703.00	696.50	88.137	696.50	88.535
48	696.50	694.00	691.50	88.447	691.50	88.751
49	691.50	689.50	686.50	88.526	686.50	88.684
50	686.50	683.50	681.00	88.417	681.00	88.555
51	681.00	677.50	668.00	88.298	668.00	88.681
52	668.00	665.50	658.00	88.456	658.00	88.666
53	658.00	654.50	651.00	88.462	651.00	88.714
54	651.00	644.50	640.50	88.513	640.50	88.721
55	640.50	637.50	634.00	88.537	634.00	88.641
56	634.00	630.50	627.50	88.524	627.50	88.592
57	627.50	623.50	617.00	88.425	617.00	88.664
58	617.00	613.00	611.00	88.412	611.00	88.580
59	611.00	608.50	606.50	88.463	606.50	88.589
60	606.50	605.50	602.00	88.533	602.00	88.621
61	602.00	598.50	589.50	88.213	589.50	88.561
62	589.50	588.00	584.50	88.464	584.50	88.725
63	584.50	580.00	577.00	88.121	577.00	88.340
64	577.00	564.50	562.50	87.929	562.50	88.014
65	562.50	560.50	557.00	87.874	557.00	88.012
66	557.00	554.50	551.00	87.785	551.00	87.964
67	551.00	540.00	533.50	87.581	533.50	87.826
68	533.50	531.50	513.00	87.620	513.00	88.447
69	513.00	502.00	500.00	87.912	500.00	88.068
70	500.00	497.00	495.00	87.849	495.00	88.023
71	495.00	493.50	490.50	87.882	490.50	88.053
72	490.50	487.50	481.50	87.895	481.50	88.163
73	481.50	474.00	471.50	87.655	471.50	87.731
74	471.50	464.00	461.50	87.243	461.50	87.363
75	461.50	405.50	380.00	69.852	380.00	71.424
76	380.00	377.50	367.50	71.256	367.50	72.138
77	367.50	341.50	338.50	67.154	338.50	69.891
78	338.50	307.00	270.00	2.656	270.00	11.142
79	270.00	237.50	206.50	0.703	206.50	33.479

ﾃﾞｰﾀﾘｽﾄ
nm	%T
1100.00	80.366
1099.50	25.945
1099.00	23.237
1098.50	65.659
1098.00	130.041
1097.50	225.453
1097.00	339.409
1096.50	401.768
1096.00	419.845
1095.50	355.421
1095.00	291.023
1094.50	223.875
1094.00	187.962
1093.50	190.047
1093.00	206.632
1092.50	172.827
1092.00	215.747
1091.50	170.257
1091.00	158.728
1090.50	158.364
1090.00	202.958
1089.50	235.441
1089.00	272.653
1088.50	240.860
1088.00	201.480
1087.50	134.672
1087.00	101.482
1086.50	89.068
1086.00	81.000
1085.50	60.925
1085.00	114.912
1084.50	54.983
1084.00	55.622
1083.50	51.600
1083.00	61.395
1082.50	87.144
1082.00	70.370
1081.50	90.663
1081.00	106.667
1080.50	117.295
1080.00	130.322
1079.50	155.657
1079.00	168.625
1078.50	170.063
1078.00	189.200
1077.50	151.691
1077.00	123.794
1076.50	114.982
1076.00	105.913
1075.50	143.344
1075.00	122.718
1074.50	124.638
1074.00	115.021
1073.50	109.825
1073.00	108.387
1072.50	116.967
1072.00	113.625
1071.50	98.822
1071.00	104.755
1070.50	94.054
1070.00	88.271
1069.50	88.878
1069.00	78.233
1068.50	84.268
1068.00	85.067
1067.50	87.152
1067.00	82.680
1066.50	85.386
1066.00	83.552
1065.50	83.518
1065.00	85.878
1064.50	82.016
1064.00	80.302
1063.50	79.733
1063.00	87.327
1062.50	85.468
1062.00	83.200
1061.50	77.406
1061.00	77.137
1060.50	77.322
1060.00	79.212
1059.50	82.430
1059.00	82.438
1058.50	81.110
1058.00	78.701
1057.50	76.795
1057.00	77.083
1056.50	75.070
1056.00	78.409
1055.50	80.860
1055.00	84.276
1054.50	79.763
1054.00	74.091
1053.50	71.026
1053.00	70.557
1052.50	70.654
1052.00	72.391
1051.50	73.824
1051.00	74.428
1050.50	73.639
1050.00	75.547
1049.50	73.951
1049.00	73.961
1048.50	73.315
1048.00	77.048
1047.50	78.022
1047.00	77.644
1046.50	78.384
1046.00	77.211
1045.50	76.054
1045.00	76.456
1044.50	75.573
1044.00	75.459
1043.50	74.408
1043.00	75.430
1042.50	75.499
1042.00	75.261
1041.50	74.473
1041.00	74.716
1040.50	75.374
1040.00	75.470
1039.50	76.226
1039.00	76.014
1038.50	75.283
1038.00	75.452
1037.50	74.818
1037.00	74.163
1036.50	73.403
1036.00	73.757
1035.50	74.056
1035.00	73.460
1034.50	72.825
1034.00	73.352
1033.50	74.087
1033.00	74.040
1032.50	74.351
1032.00	74.859
1031.50	74.675
1031.00	75.021
1030.50	75.519
1030.00	76.249
1029.50	77.200
1029.00	78.603
1028.50	80.127
1028.00	80.136
1027.50	80.079
1027.00	80.562
1026.50	80.749
1026.00	81.615
1025.50	82.299
1025.00	82.804
1024.50	82.719
1024.00	82.775
1023.50	82.929
1023.00	82.269
1022.50	81.452
1022.00	80.472
1021.50	79.279
1021.00	77.393
1020.50	76.766
1020.00	75.828
1019.50	75.186
1019.00	75.384
1018.50	76.094
1018.00	76.631
1017.50	77.181
1017.00	77.684
1016.50	77.930
1016.00	77.386
1015.50	76.979
1015.00	76.956
1014.50	76.754
1014.00	76.068
1013.50	76.223
1013.00	76.131
1012.50	76.402
1012.00	76.941
1011.50	76.989
1011.00	76.981
1010.50	76.988
1010.00	76.816
1009.50	77.064
1009.00	76.582
1008.50	76.547
1008.00	76.512
1007.50	76.990
1007.00	77.243
1006.50	76.871
1006.00	76.421
1005.50	76.312
1005.00	76.175
1004.50	75.762
1004.00	75.782
1003.50	76.443
1003.00	76.580
1002.50	76.991
1002.00	76.810
1001.50	76.834
1001.00	76.444
1000.50	76.500
1000.00	76.769
999.50	77.118
999.00	77.461
998.50	77.564
998.00	77.737
997.50	77.602
997.00	77.461
996.50	77.625
996.00	77.551
995.50	77.539
995.00	77.554
994.50	77.710
994.00	77.768
993.50	77.551
993.00	77.271
992.50	76.662
992.00	76.835
991.50	76.479
991.00	76.422
990.50	76.598
990.00	76.996
989.50	77.474
989.00	78.055
988.50	78.234
988.00	78.035
987.50	77.728
987.00	77.795
986.50	77.507
986.00	77.517
985.50	77.288
985.00	77.550
984.50	77.653
984.00	77.745
983.50	77.675
983.00	77.317
982.50	77.330
982.00	77.279
981.50	77.479
981.00	77.508
980.50	77.554
980.00	77.905
979.50	77.777
979.00	77.694
978.50	77.813
978.00	77.625
977.50	77.645
977.00	77.798
976.50	78.019
976.00	77.882
975.50	77.748
975.00	77.367
974.50	77.416
974.00	77.610
973.50	77.749
973.00	77.631
972.50	77.503
972.00	77.317
971.50	77.110
971.00	76.863
970.50	77.131
970.00	76.895
969.50	77.216
969.00	77.412
968.50	77.750
968.00	77.644
967.50	77.407
967.00	77.455
966.50	77.321
966.00	77.572
965.50	77.738
965.00	77.572
964.50	77.377
964.00	77.166
963.50	77.314
963.00	77.168
962.50	77.209
962.00	76.986
961.50	77.178
961.00	77.260
960.50	77.219
960.00	77.578
959.50	77.891
959.00	78.396
958.50	78.451
958.00	78.400
957.50	78.211
957.00	77.776
956.50	77.429
956.00	77.502
955.50	77.958
955.00	78.346
954.50	79.055
954.00	79.674
953.50	79.562
953.00	78.969
952.50	78.686
952.00	77.955
951.50	77.490
951.00	77.441
950.50	77.280
950.00	77.475
949.50	77.742
949.00	77.831
948.50	77.858
948.00	77.913
947.50	77.855
947.00	77.986
946.50	77.963
946.00	77.690
945.50	77.727
945.00	77.387
944.50	77.512
944.00	77.677
943.50	77.253
943.00	77.290
942.50	77.749
942.00	78.423
941.50	78.487
941.00	78.932
940.50	79.268
940.00	79.435
939.50	79.188
939.00	79.236
938.50	79.161
938.00	78.730
937.50	78.663
937.00	78.651
936.50	78.415
936.00	78.194
935.50	78.029
935.00	78.107
934.50	77.938
934.00	77.802
933.50	78.315
933.00	78.804
932.50	78.833
932.00	79.214
931.50	79.437
931.00	79.638
930.50	79.385
930.00	78.942
929.50	78.723
929.00	78.522
928.50	78.778
928.00	78.878
927.50	79.150
927.00	78.973
926.50	78.886
926.00	78.600
925.50	78.679
925.00	78.443
924.50	78.799
924.00	79.402
923.50	79.723
923.00	79.601
922.50	79.345
922.00	79.032
921.50	78.981
921.00	78.689
920.50	78.933
920.00	79.607
919.50	79.797
919.00	79.565
918.50	79.363
918.00	78.316
917.50	78.325
917.00	78.216
916.50	78.489
916.00	78.650
915.50	78.767
915.00	79.556
914.50	80.112
914.00	80.104
913.50	79.963
913.00	80.155
912.50	79.966
912.00	80.057
911.50	79.335
911.00	78.653
910.50	78.755
910.00	78.829
909.50	79.027
909.00	79.131
908.50	78.900
908.00	79.295
907.50	80.379
907.00	80.626
906.50	80.421
906.00	80.163
905.50	79.715
905.00	79.752
904.50	78.943
904.00	78.969
903.50	79.219
903.00	79.361
902.50	79.886
902.00	80.345
901.50	80.483
901.00	80.583
900.50	80.745
900.00	80.250
899.50	79.788
899.00	79.626
898.50	79.781
898.00	79.840
897.50	79.647
897.00	79.831
896.50	79.923
896.00	79.479
895.50	79.588
895.00	79.333
894.50	79.300
894.00	79.851
893.50	80.510
893.00	81.253
892.50	81.326
892.00	81.504
891.50	81.522
891.00	80.796
890.50	80.492
890.00	80.487
889.50	79.864
889.00	79.551
888.50	79.929
888.00	80.363
887.50	80.736
887.00	80.399
886.50	80.455
886.00	80.364
885.50	80.511
885.00	80.615
884.50	81.113
884.00	80.840
883.50	81.044
883.00	81.191
882.50	80.919
882.00	80.473
881.50	79.994
881.00	79.815
880.50	79.781
880.00	79.931
879.50	80.615
879.00	80.919
878.50	81.796
878.00	81.662
877.50	81.638
877.00	81.345
876.50	81.047
876.00	80.538
875.50	80.407
875.00	80.359
874.50	80.533
874.00	80.863
873.50	81.010
873.00	81.327
872.50	81.557
872.00	81.786
871.50	82.318
871.00	82.242
870.50	81.666
870.00	81.088
869.50	79.992
869.00	79.334
868.50	78.670
868.00	78.725
867.50	79.610
867.00	80.550
866.50	81.301
866.00	81.687
865.50	81.554
865.00	81.364
864.50	80.979
864.00	80.478
863.50	80.462
863.00	80.892
862.50	81.540
862.00	82.401
861.50	82.497
861.00	82.194
860.50	82.043
860.00	81.591
859.50	80.932
859.00	80.642
858.50	80.072
858.00	80.429
857.50	81.194
857.00	81.541
856.50	81.787
856.00	81.983
855.50	82.189
855.00	82.327
854.50	82.360
854.00	82.165
853.50	82.160
853.00	82.240
852.50	82.455
852.00	82.781
851.50	82.376
851.00	82.452
850.50	82.723
850.00	82.543
849.50	82.291
849.00	82.129
848.50	81.850
848.00	81.779
847.50	82.259
847.00	82.297
846.50	82.478
846.00	82.725
845.50	83.125
845.00	83.187
844.50	82.428
844.00	82.243
843.50	82.116
843.00	81.846
842.50	81.918
842.00	82.344
841.50	82.318
841.00	82.086
840.50	82.180
840.00	81.927
839.50	81.779
839.00	82.027
838.50	82.233
838.00	82.604
837.50	82.431
837.00	82.637
836.50	82.710
836.00	82.743
835.50	82.501
835.00	82.898
834.50	83.373
834.00	83.327
833.50	83.495
833.00	83.204
832.50	82.960
832.00	83.211
831.50	83.147
831.00	83.162
830.50	83.043
830.00	83.116
829.50	83.173
829.00	83.540
828.50	83.448
828.00	83.295
827.50	83.374
827.00	83.216
826.50	83.528
826.00	83.420
825.50	83.303
825.00	83.470
824.50	83.607
824.00	84.076
823.50	84.039
823.00	83.857
822.50	83.383
822.00	83.194
821.50	83.134
821.00	83.400
820.50	83.621
820.00	83.638
819.50	84.271
819.00	84.582
818.50	84.761
818.00	84.601
817.50	84.438
817.00	84.715
816.50	84.630
816.00	84.647
815.50	84.821
815.00	84.714
814.50	84.561
814.00	84.495
813.50	84.299
813.00	84.041
812.50	84.230
812.00	84.363
811.50	84.449
811.00	84.435
810.50	84.661
810.00	84.914
809.50	85.050
809.00	84.852
808.50	85.002
808.00	85.059
807.50	85.334
807.00	85.321
806.50	85.243
806.00	85.045
805.50	85.090
805.00	85.455
804.50	85.458
804.00	85.355
803.50	85.431
803.00	85.412
802.50	85.578
802.00	85.523
801.50	85.606
801.00	85.655
800.50	85.735
800.00	85.646
799.50	85.651
799.00	85.291
798.50	85.107
798.00	85.254
797.50	85.377
797.00	85.607
796.50	85.875
796.00	85.964
795.50	85.979
795.00	85.932
794.50	85.937
794.00	85.796
793.50	85.877
793.00	85.822
792.50	86.043
792.00	86.080
791.50	86.192
791.00	86.277
790.50	86.136
790.00	85.987
789.50	86.142
789.00	86.095
788.50	85.966
788.00	85.865
787.50	85.845
787.00	85.942
786.50	86.240
786.00	86.304
785.50	86.394
785.00	86.269
784.50	86.220
784.00	86.341
783.50	86.267
783.00	86.005
782.50	86.109
782.00	86.233
781.50	86.509
781.00	86.692
780.50	86.716
780.00	86.577
779.50	86.696
779.00	86.693
778.50	86.511
778.00	86.347
777.50	86.182
777.00	86.363
776.50	86.660
776.00	86.882
775.50	86.938
775.00	86.780
774.50	86.778
774.00	86.818
773.50	86.776
773.00	86.622
772.50	86.748
772.00	86.775
771.50	86.759
771.00	86.804
770.50	86.686
770.00	86.596
769.50	86.578
769.00	86.684
768.50	86.785
768.00	86.779
767.50	86.823
767.00	86.983
766.50	86.875
766.00	86.796
765.50	86.784
765.00	86.809
764.50	86.669
764.00	86.617
763.50	86.667
763.00	86.684
762.50	86.598
762.00	86.599
761.50	86.725
761.00	86.840
760.50	86.977
760.00	87.219
759.50	87.354
759.00	87.508
758.50	87.619
758.00	87.622
757.50	87.480
757.00	87.299
756.50	87.126
756.00	87.016
755.50	86.836
755.00	86.753
754.50	86.842
754.00	86.962
753.50	87.124
753.00	87.292
752.50	87.361
752.00	87.360
751.50	87.365
751.00	87.329
750.50	87.412
750.00	87.480
749.50	87.676
749.00	87.790
748.50	87.893
748.00	88.054
747.50	88.165
747.00	88.231
746.50	88.310
746.00	88.538
745.50	88.727
745.00	88.925
744.50	88.970
744.00	88.977
743.50	88.969
743.00	88.861
742.50	88.845
742.00	88.783
741.50	88.721
741.00	88.633
740.50	88.548
740.00	88.398
739.50	88.246
739.00	88.098
738.50	87.949
738.00	87.945
737.50	87.956
737.00	87.978
736.50	87.997
736.00	88.076
735.50	88.084
735.00	88.164
734.50	88.195
734.00	88.203
733.50	88.289
733.00	88.232
732.50	88.210
732.00	88.137
731.50	88.048
731.00	88.060
730.50	88.095
730.00	88.203
729.50	88.325
729.00	88.412
728.50	88.418
728.00	88.497
727.50	88.451
727.00	88.407
726.50	88.391
726.00	88.279
725.50	88.277
725.00	88.311
724.50	88.287
724.00	88.276
723.50	88.226
723.00	88.189
722.50	88.205
722.00	88.120
721.50	88.068
721.00	88.092
720.50	88.107
720.00	88.218
719.50	88.310
719.00	88.453
718.50	88.488
718.00	88.541
717.50	88.496
717.00	88.430
716.50	88.297
716.00	88.176
715.50	88.104
715.00	88.101
714.50	88.185
714.00	88.275
713.50	88.415
713.00	88.496
712.50	88.439
712.00	88.485
711.50	88.420
711.00	88.386
710.50	88.366
710.00	88.368
709.50	88.378
709.00	88.383
708.50	88.357
708.00	88.409
707.50	88.446
707.00	88.471
706.50	88.568
706.00	88.563
705.50	88.537
705.00	88.466
704.50	88.365
704.00	88.265
703.50	88.211
703.00	88.137
702.50	88.183
702.00	88.243
701.50	88.289
701.00	88.325
700.50	88.381
700.00	88.436
699.50	88.508
699.00	88.482
698.50	88.515
698.00	88.464
697.50	88.486
697.00	88.517
696.50	88.535
696.00	88.530
695.50	88.490
695.00	88.493
694.50	88.451
694.00	88.447
693.50	88.493
693.00	88.567
692.50	88.665
692.00	88.722
691.50	88.751
691.00	88.704
690.50	88.622
690.00	88.562
689.50	88.526
689.00	88.530
688.50	88.559
688.00	88.623
687.50	88.620
687.00	88.618
686.50	88.684
686.00	88.657
685.50	88.592
685.00	88.511
684.50	88.451
684.00	88.427
683.50	88.417
683.00	88.419
682.50	88.463
682.00	88.458
681.50	88.508
681.00	88.555
680.50	88.523
680.00	88.446
679.50	88.484
679.00	88.453
678.50	88.413
678.00	88.342
677.50	88.298
677.00	88.319
676.50	88.396
676.00	88.407
675.50	88.458
675.00	88.472
674.50	88.462
674.00	88.484
673.50	88.465
673.00	88.480
672.50	88.490
672.00	88.548
671.50	88.580
671.00	88.552
670.50	88.518
670.00	88.525
669.50	88.601
669.00	88.630
668.50	88.631
668.00	88.681
667.50	88.631
667.00	88.556
666.50	88.489
666.00	88.466
665.50	88.456
665.00	88.518
664.50	88.518
664.00	88.531
663.50	88.541
663.00	88.498
662.50	88.511
662.00	88.515
661.50	88.485
661.00	88.533
660.50	88.603
660.00	88.549
659.50	88.539
659.00	88.562
658.50	88.627
658.00	88.666
657.50	88.634
657.00	88.636
656.50	88.618
656.00	88.560
655.50	88.531
655.00	88.498
654.50	88.462
654.00	88.507
653.50	88.639
653.00	88.590
652.50	88.598
652.00	88.594
651.50	88.675
651.00	88.714
650.50	88.702
650.00	88.669
649.50	88.672
649.00	88.682
648.50	88.667
648.00	88.623
647.50	88.604
647.00	88.588
646.50	88.587
646.00	88.583
645.50	88.563
645.00	88.520
644.50	88.513
644.00	88.576
643.50	88.639
643.00	88.677
642.50	88.698
642.00	88.691
641.50	88.697
641.00	88.693
640.50	88.721
640.00	88.654
639.50	88.618
639.00	88.647
638.50	88.614
638.00	88.590
637.50	88.537
637.00	88.560
636.50	88.552
636.00	88.594
635.50	88.593
635.00	88.589
634.50	88.613
634.00	88.641
633.50	88.616
633.00	88.617
632.50	88.599
632.00	88.577
631.50	88.572
631.00	88.538
630.50	88.524
630.00	88.567
629.50	88.572
629.00	88.564
628.50	88.573
628.00	88.578
627.50	88.592
627.00	88.540
626.50	88.461
626.00	88.485
625.50	88.524
625.00	88.512
624.50	88.492
624.00	88.468
623.50	88.425
623.00	88.472
622.50	88.501
622.00	88.530
621.50	88.569
621.00	88.566
620.50	88.614
620.00	88.620
619.50	88.627
619.00	88.622
618.50	88.622
618.00	88.626
617.50	88.646
617.00	88.664
616.50	88.658
616.00	88.642
615.50	88.588
615.00	88.560
614.50	88.528
614.00	88.462
613.50	88.423
613.00	88.412
612.50	88.417
612.00	88.510
611.50	88.568
611.00	88.580
610.50	88.547
610.00	88.477
609.50	88.475
609.00	88.467
608.50	88.463
608.00	88.470
607.50	88.481
607.00	88.546
606.50	88.589
606.00	88.577
605.50	88.533
605.00	88.550
604.50	88.534
604.00	88.545
603.50	88.551
603.00	88.565
602.50	88.600
602.00	88.621
601.50	88.586
601.00	88.518
600.50	88.422
600.00	88.373
599.50	88.315
599.00	88.221
598.50	88.213
598.00	88.228
597.50	88.286
597.00	88.301
596.50	88.350
596.00	88.335
595.50	88.378
595.00	88.404
594.50	88.426
594.00	88.454
593.50	88.444
593.00	88.431
592.50	88.438
592.00	88.476
591.50	88.532
591.00	88.534
590.50	88.549
590.00	88.529
589.50	88.561
589.00	88.480
588.50	88.479
588.00	88.464
587.50	88.516
587.00	88.585
586.50	88.639
586.00	88.702
585.50	88.685
585.00	88.709
584.50	88.725
584.00	88.699
583.50	88.594
583.00	88.504
582.50	88.424
582.00	88.347
581.50	88.278
581.00	88.229
580.50	88.194
580.00	88.121
579.50	88.127
579.00	88.172
578.50	88.179
578.00	88.240
577.50	88.273
577.00	88.340
576.50	88.303
576.00	88.286
575.50	88.241
575.00	88.227
574.50	88.197
574.00	88.180
573.50	88.187
573.00	88.137
572.50	88.116
572.00	88.129
571.50	88.142
571.00	88.162
570.50	88.146
570.00	88.153
569.50	88.109
569.00	88.113
568.50	88.100
568.00	88.135
567.50	88.164
567.00	88.152
566.50	88.151
566.00	88.089
565.50	88.001
565.00	87.946
564.50	87.929
564.00	87.953
563.50	87.976
563.00	87.982
562.50	88.014
562.00	88.013
561.50	87.936
561.00	87.892
560.50	87.874
560.00	87.886
559.50	87.922
559.00	87.937
558.50	87.995
558.00	87.994
557.50	87.971
557.00	88.012
556.50	87.945
556.00	87.887
555.50	87.864
555.00	87.831
554.50	87.785
554.00	87.801
553.50	87.792
553.00	87.860
552.50	87.903
552.00	87.919
551.50	87.956
551.00	87.964
550.50	87.941
550.00	87.936
549.50	87.847
549.00	87.802
548.50	87.771
548.00	87.722
547.50	87.707
547.00	87.700
546.50	87.695
546.00	87.698
545.50	87.678
545.00	87.638
544.50	87.648
544.00	87.633
543.50	87.634
543.00	87.626
542.50	87.610
542.00	87.600
541.50	87.607
541.00	87.592
540.50	87.582
540.00	87.581
539.50	87.655
539.00	87.704
538.50	87.738
538.00	87.750
537.50	87.781
537.00	87.768
536.50	87.746
536.00	87.740
535.50	87.731
535.00	87.760
534.50	87.788
534.00	87.825
533.50	87.826
533.00	87.803
532.50	87.739
532.00	87.666
531.50	87.620
531.00	87.631
530.50	87.661
530.00	87.716
529.50	87.782
529.00	87.873
528.50	87.919
528.00	87.934
527.50	87.918
527.00	87.910
526.50	87.916
526.00	87.936
525.50	87.930
525.00	87.948
524.50	87.983
524.00	87.979
523.50	87.990
523.00	87.990
522.50	88.010
522.00	88.057
521.50	88.097
521.00	88.087
520.50	88.110
520.00	88.153
519.50	88.197
519.00	88.238
518.50	88.267
518.00	88.304
517.50	88.333
517.00	88.344
516.50	88.332
516.00	88.299
515.50	88.320
515.00	88.372
514.50	88.416
514.00	88.447
513.50	88.446
513.00	88.447
512.50	88.421
512.00	88.359
511.50	88.327
511.00	88.294
510.50	88.246
510.00	88.267
509.50	88.248
509.00	88.221
508.50	88.216
508.00	88.209
507.50	88.166
507.00	88.138
506.50	88.089
506.00	88.042
505.50	88.010
505.00	87.966
504.50	87.962
504.00	87.975
503.50	87.971
503.00	87.996
502.50	87.947
502.00	87.912
501.50	87.930
501.00	87.978
500.50	88.019
500.00	88.068
499.50	88.033
499.00	88.017
498.50	87.953
498.00	87.886
497.50	87.865
497.00	87.849
496.50	87.862
496.00	87.952
495.50	88.012
495.00	88.023
494.50	87.977
494.00	87.912
493.50	87.882
493.00	87.890
492.50	87.891
492.00	87.931
491.50	87.946
491.00	88.000
490.50	88.053
490.00	88.036
489.50	87.942
489.00	87.918
488.50	87.900
488.00	87.897
487.50	87.895
487.00	87.941
486.50	87.928
486.00	87.955
485.50	87.969
485.00	87.930
484.50	87.864
484.00	87.871
483.50	87.939
483.00	88.015
482.50	88.073
482.00	88.124
481.50	88.163
481.00	88.130
480.50	88.078
480.00	88.027
479.50	87.920
479.00	87.857
478.50	87.856
478.00	87.882
477.50	87.852
477.00	87.805
476.50	87.779
476.00	87.736
475.50	87.732
475.00	87.678
474.50	87.670
474.00	87.655
473.50	87.662
473.00	87.700
472.50	87.708
472.00	87.723
471.50	87.731
471.00	87.699
470.50	87.672
470.00	87.641
469.50	87.627
469.00	87.618
468.50	87.624
468.00	87.586
467.50	87.562
467.00	87.522
466.50	87.426
466.00	87.343
465.50	87.263
465.00	87.263
464.50	87.264
464.00	87.243
463.50	87.300
463.00	87.318
462.50	87.296
462.00	87.337
461.50	87.363
461.00	87.285
460.50	87.257
460.00	87.217
459.50	87.188
459.00	87.140
458.50	87.134
458.00	87.151
457.50	87.122
457.00	87.095
456.50	87.099
456.00	87.064
455.50	86.964
455.00	86.940
454.50	86.876
454.00	86.776
453.50	86.695
453.00	86.616
452.50	86.623
452.00	86.629
451.50	86.632
451.00	86.626
450.50	86.581
450.00	86.521
449.50	86.433
449.00	86.301
448.50	86.191
448.00	86.147
447.50	86.141
447.00	86.075
446.50	85.913
446.00	85.719
445.50	85.638
445.00	85.537
444.50	85.491
444.00	85.450
443.50	85.405
443.00	85.361
442.50	85.281
442.00	85.134
441.50	85.024
441.00	84.877
440.50	84.839
440.00	84.800
439.50	84.690
439.00	84.498
438.50	84.358
438.00	84.174
437.50	84.087
437.00	83.965
436.50	83.891
436.00	83.793
435.50	83.610
435.00	83.411
434.50	83.247
434.00	83.003
433.50	82.763
433.00	82.539
432.50	82.354
432.00	82.186
431.50	82.015
431.00	81.822
430.50	81.663
430.00	81.421
429.50	81.179
429.00	80.953
428.50	80.694
428.00	80.484
427.50	80.207
427.00	79.894
426.50	79.548
426.00	79.181
425.50	78.778
425.00	78.445
424.50	78.070
424.00	77.729
423.50	77.418
423.00	77.062
422.50	76.658
422.00	76.321
421.50	75.984
421.00	75.708
420.50	75.445
420.00	75.206
419.50	74.913
419.00	74.635
418.50	74.297
418.00	73.981
417.50	73.572
417.00	73.267
416.50	73.012
416.00	72.704
415.50	72.461
415.00	72.234
414.50	72.042
414.00	71.791
413.50	71.551
413.00	71.303
412.50	70.997
412.00	70.823
411.50	70.688
411.00	70.565
410.50	70.399
410.00	70.345
409.50	70.308
409.00	70.255
408.50	70.172
408.00	70.089
407.50	70.002
407.00	69.912
406.50	69.878
406.00	69.874
405.50	69.852
405.00	69.887
404.50	69.907
404.00	69.947
403.50	69.935
403.00	69.924
402.50	69.918
402.00	69.939
401.50	69.919
401.00	70.044
400.50	70.111
400.00	70.106
399.50	70.085
399.00	70.063
398.50	70.074
398.00	70.082
397.50	70.047
397.00	70.110
396.50	70.190
396.00	70.265
395.50	70.381
395.00	70.379
394.50	70.367
394.00	70.420
393.50	70.433
393.00	70.422
392.50	70.436
392.00	70.465
391.50	70.538
391.00	70.597
390.50	70.655
390.00	70.695
389.50	70.679
389.00	70.676
388.50	70.766
388.00	70.789
387.50	70.843
387.00	70.895
386.50	70.874
386.00	70.888
385.50	70.933
385.00	70.952
384.50	71.010
384.00	71.066
383.50	71.258
383.00	71.334
382.50	71.313
382.00	71.282
381.50	71.315
381.00	71.318
380.50	71.390
380.00	71.424
379.50	71.363
379.00	71.352
378.50	71.329
378.00	71.307
377.50	71.256
377.00	71.277
376.50	71.403
376.00	71.498
375.50	71.522
375.00	71.569
374.50	71.667
374.00	71.658
373.50	71.703
373.00	71.774
372.50	71.839
372.00	71.962
371.50	72.004
371.00	72.062
370.50	72.035
370.00	72.013
369.50	72.020
369.00	72.048
368.50	72.035
368.00	72.036
367.50	72.138
367.00	72.123
366.50	72.079
366.00	72.036
365.50	71.952
365.00	71.925
364.50	71.854
364.00	71.831
363.50	71.814
363.00	71.762
362.50	71.720
362.00	71.642
361.50	71.559
361.00	71.485
360.50	71.437
360.00	71.355
359.50	71.250
359.00	71.275
358.50	71.204
358.00	71.232
357.50	71.250
357.00	71.193
356.50	71.113
356.00	71.026
355.50	70.861
355.00	70.698
354.50	70.561
354.00	70.462
353.50	70.393
353.00	70.350
352.50	70.225
352.00	70.213
351.50	70.138
351.00	70.091
350.50	70.076
350.00	69.993
349.50	69.972
349.00	69.924
348.50	69.721
348.00	69.504
347.50	69.272
347.00	69.088
346.50	68.979
346.00	68.903
345.50	68.785
345.00	68.633
344.50	68.524
344.00	68.373
343.50	68.182
343.00	68.125
342.50	67.723
342.00	67.308
341.50	67.154
341.00	67.303
340.50	67.669
340.00	68.314
339.50	68.968
339.00	69.532
338.50	69.891
338.00	69.877
337.50	69.543
337.00	68.991
336.50	68.399
336.00	68.192
335.50	67.687
335.00	67.044
334.50	66.450
334.00	65.834
333.50	65.125
333.00	64.402
332.50	63.615
332.00	62.694
331.50	61.814
331.00	60.812
330.50	59.875
330.00	58.927
329.50	57.925
329.00	56.873
328.50	55.626
328.00	54.191
327.50	52.694
327.00	51.057
326.50	49.616
326.00	48.219
325.50	46.812
325.00	45.172
324.50	43.395
324.00	41.347
323.50	39.138
323.00	37.079
322.50	35.071
322.00	33.084
321.50	31.076
321.00	29.054
320.50	26.950
320.00	24.629
319.50	22.396
319.00	20.418
318.50	18.619
318.00	16.896
317.50	15.251
317.00	13.594
316.50	11.757
316.00	10.132
315.50	8.657
315.00	7.438
314.50	6.472
314.00	5.725
313.50	5.130
313.00	4.627
312.50	4.080
312.00	3.686
311.50	3.386
311.00	3.159
310.50	3.001
310.00	2.894
309.50	2.824
309.00	2.778
308.50	2.712
308.00	2.682
307.50	2.665
307.00	2.656
306.50	2.658
306.00	2.676
305.50	2.701
305.00	2.736
304.50	2.783
304.00	2.844
303.50	2.918
303.00	2.977
302.50	3.039
302.00	3.114
301.50	3.208
301.00	3.326
300.50	3.467
300.00	3.608
299.50	3.768
299.00	3.905
298.50	4.038
298.00	4.173
297.50	4.320
297.00	4.488
296.50	4.688
296.00	4.889
295.50	5.091
295.00	5.271
294.50	5.436
294.00	5.599
293.50	5.769
293.00	5.939
292.50	6.137
292.00	6.322
291.50	6.496
291.00	6.647
290.50	6.788
290.00	6.919
289.50	7.058
289.00	7.216
288.50	7.392
288.00	7.567
287.50	7.731
287.00	7.880
286.50	8.014
286.00	8.156
285.50	8.297
285.00	8.460
284.50	8.635
284.00	8.805
283.50	8.976
283.00	9.111
282.50	9.235
282.00	9.343
281.50	9.451
281.00	9.574
280.50	9.700
280.00	9.832
279.50	9.948
279.00	10.062
278.50	10.154
278.00	10.246
277.50	10.330
277.00	10.425
276.50	10.523
276.00	10.623
275.50	10.716
275.00	10.790
274.50	10.852
274.00	10.919
273.50	10.965
273.00	11.013
272.50	11.052
272.00	11.076
271.50	11.098
271.00	11.125
270.50	11.140
270.00	11.142
269.50	11.132
269.00	11.126
268.50	11.107
268.00	11.079
267.50	11.046
267.00	11.027
266.50	10.997
266.00	10.948
265.50	10.891
265.00	10.802
264.50	10.695
264.00	10.579
263.50	10.489
263.00	10.384
262.50	10.297
262.00	10.201
261.50	10.086
261.00	9.945
260.50	9.781
260.00	9.619
259.50	9.485
259.00	9.357
258.50	9.219
258.00	9.064
257.50	8.884
257.00	8.661
256.50	8.434
256.00	8.169
255.50	7.949
255.00	7.742
254.50	7.544
254.00	7.344
253.50	7.113
253.00	6.845
252.50	6.580
252.00	6.314
251.50	6.075
251.00	5.862
250.50	5.657
250.00	5.437
249.50	5.202
249.00	4.923
248.50	4.651
248.00	4.359
247.50	4.100
247.00	3.867
246.50	3.637
246.00	3.412
245.50	3.169
245.00	2.893
244.50	2.626
244.00	2.371
243.50	2.146
243.00	1.940
242.50	1.761
242.00	1.599
241.50	1.444
241.00	1.274
240.50	1.126
240.00	0.999
239.50	0.891
239.00	0.810
238.50	0.750
238.00	0.714
237.50	0.703
237.00	0.703
236.50	0.735
236.00	0.802
235.50	0.867
235.00	0.961
234.50	1.094
234.00	1.274
233.50	1.507
233.00	1.780
232.50	2.104
232.00	2.408
231.50	2.725
231.00	3.075
230.50	3.458
230.00	3.887
229.50	4.374
229.00	4.915
228.50	5.493
228.00	6.026
227.50	6.544
227.00	7.107
226.50	7.741
226.00	8.468
225.50	9.315
225.00	10.170
224.50	11.053
224.00	11.853
223.50	12.572
223.00	13.300
222.50	14.040
222.00	14.820
221.50	15.724
221.00	16.622
220.50	17.528
220.00	18.322
219.50	19.053
219.00	19.775
218.50	20.527
218.00	21.328
217.50	22.247
217.00	23.155
216.50	24.022
216.00	24.860
215.50	25.622
215.00	26.315
214.50	27.031
214.00	27.742
213.50	28.513
213.00	29.191
212.50	29.823
212.00	30.350
211.50	30.789
211.00	31.192
210.50	31.547
210.00	31.890
209.50	32.260
209.00	32.606
208.50	32.882
208.00	33.085
207.50	33.311
207.00	33.427
206.50	33.479
206.00	33.444
205.50	33.340
205.00	33.121
204.50	32.845
204.00	32.623
203.50	32.380
203.00	32.078
202.50	31.725
202.00	31.250
201.50	30.644
201.00	29.933
200.50	29.203
200.00	28.548
199.50	27.949
199.00	27.264
198.50	26.448
198.00	25.470
197.50	24.323
197.00	23.100
196.50	21.767
196.00	20.641
195.50	19.565
195.00	18.441
194.50	17.264
194.00	16.000
193.50	14.613
193.00	13.338
192.50	12.119
192.00	10.906
191.50	9.787
191.00	8.848
190.50	8.128
190.00	7.607

