ｻﾝﾌﾟﾙ:	CdS_550_500__05%R.txt
ﾌｧｲﾙ名:	CdS_550_500__05%R.txt.UDS
分析日時:	'13:57:23, 09/27/2024
ｵﾍﾟﾚｰﾀ:	OB
ｺﾒﾝﾄ:	'

光度計
ﾓﾃﾞﾙ:	U-3900形分光光度計
ｼﾘｱﾙ No.:	'3004-010
ROM Ver.:	2J25300 07

装置条件
測定ﾓｰﾄﾞ:	波長ｽｷｬﾝ
ﾃﾞｰﾀﾓｰﾄﾞ:	%R
開始波長:	550.00 nm
終了波長:	500.00 nm
ｽｷｬﾝｽﾋﾟｰﾄﾞ:	60 nm/min
ｻﾝﾌﾟﾘﾝｸﾞ間隔:	0.10 nm
初期待ち時間:	0 s
繰り返し周期:	0.0 min
測定回数:	1
測定前ｵｰﾄｾﾞﾛ:	Off
ｽﾘｯﾄ:	0.5 nm
ﾎﾄﾏﾙ電圧:	自動制御
光源切換ﾓｰﾄﾞ:	自動切換
光源切換波長:	340.00 nm
ﾍﾞｰｽﾗｲﾝ設定:	ﾕｰｻﾞ 1
高分解能測定:	Off
D2ﾗﾝﾌﾟ:	On
WIﾗﾝﾌﾟ:	On
R/S反転:	Off

ﾋﾟｰｸ検出
検出方法:	Rectangular
感度:	1
しきい値:	0.0100

ﾋﾟｰｸ
ﾋﾟｰｸ No.	開始 (nm)	ﾋﾟｰｸ (nm)	終了 (nm)	高さ (%R)	ﾊﾞﾚｰ (nm)	ﾊﾞﾚｰ (%R)
1	548.30	547.70	546.90	26.059	546.90	26.243
2	546.90	546.40	544.80	26.160	544.80	26.345
3	544.80	544.30	542.40	26.236	542.40	26.388
4	542.40	541.70	541.00	26.311	541.00	26.408
5	541.00	540.50	540.00	26.341	540.00	26.438
6	540.00	539.50	539.20	26.333	539.20	26.443
7	539.20	538.60	538.20	26.324	538.20	26.441
8	538.20	537.70	536.70	26.363	536.70	26.478
9	536.70	536.30	535.80	26.324	535.80	26.414
10	535.80	522.70	522.20	17.897	522.20	18.032
11	522.20	521.90	520.80	17.945	520.80	18.140
12	520.80	520.30	510.70	18.061	510.70	19.547
13	510.70	510.20	506.60	19.515	506.60	19.790
14	506.60	501.10	500.60	19.027	500.60	19.093

ﾃﾞｰﾀﾘｽﾄ
nm	%R
550.00	26.083
549.90	26.119
549.80	26.127
549.70	26.120
549.60	26.093
549.50	26.092
549.40	26.113
549.30	26.139
549.20	26.152
549.10	26.143
549.00	26.158
548.90	26.173
548.80	26.144
548.70	26.125
548.60	26.117
548.50	26.153
548.40	26.200
548.30	26.250
548.20	26.200
548.10	26.165
548.00	26.152
547.90	26.142
547.80	26.086
547.70	26.059
547.60	26.076
547.50	26.148
547.40	26.167
547.30	26.186
547.20	26.200
547.10	26.168
547.00	26.175
546.90	26.243
546.80	26.211
546.70	26.183
546.60	26.170
546.50	26.183
546.40	26.160
546.30	26.176
546.20	26.194
546.10	26.226
546.00	26.277
545.90	26.305
545.80	26.317
545.70	26.271
545.60	26.256
545.50	26.281
545.40	26.284
545.30	26.259
545.20	26.292
545.10	26.333
545.00	26.340
544.90	26.341
544.80	26.345
544.70	26.314
544.60	26.317
544.50	26.303
544.40	26.257
544.30	26.236
544.20	26.241
544.10	26.260
544.00	26.286
543.90	26.268
543.80	26.266
543.70	26.268
543.60	26.298
543.50	26.275
543.40	26.277
543.30	26.263
543.20	26.283
543.10	26.291
543.00	26.310
542.90	26.315
542.80	26.331
542.70	26.334
542.60	26.368
542.50	26.386
542.40	26.388
542.30	26.352
542.20	26.355
542.10	26.352
542.00	26.373
541.90	26.354
541.80	26.332
541.70	26.311
541.60	26.320
541.50	26.314
541.40	26.332
541.30	26.331
541.20	26.376
541.10	26.388
541.00	26.408
540.90	26.398
540.80	26.379
540.70	26.362
540.60	26.359
540.50	26.341
540.40	26.346
540.30	26.402
540.20	26.414
540.10	26.410
540.00	26.438
539.90	26.431
539.80	26.434
539.70	26.381
539.60	26.340
539.50	26.333
539.40	26.365
539.30	26.427
539.20	26.443
539.10	26.438
539.00	26.415
538.90	26.431
538.80	26.399
538.70	26.330
538.60	26.324
538.50	26.351
538.40	26.393
538.30	26.418
538.20	26.441
538.10	26.427
538.00	26.397
537.90	26.396
537.80	26.375
537.70	26.363
537.60	26.377
537.50	26.407
537.40	26.417
537.30	26.415
537.20	26.421
537.10	26.436
537.00	26.436
536.90	26.447
536.80	26.457
536.70	26.478
536.60	26.446
536.50	26.410
536.40	26.364
536.30	26.324
536.20	26.343
536.10	26.374
536.00	26.395
535.90	26.409
535.80	26.414
535.70	26.400
535.60	26.385
535.50	26.353
535.40	26.300
535.30	26.309
535.20	26.296
535.10	26.276
535.00	26.271
534.90	26.267
534.80	26.251
534.70	26.241
534.60	26.221
534.50	26.184
534.40	26.153
534.30	26.119
534.20	26.120
534.10	26.119
534.00	26.086
533.90	26.090
533.80	26.117
533.70	26.082
533.60	26.066
533.50	26.063
533.40	26.050
533.30	26.042
533.20	26.015
533.10	25.974
533.00	25.935
532.90	25.882
532.80	25.841
532.70	25.821
532.60	25.807
532.50	25.755
532.40	25.782
532.30	25.731
532.20	25.683
532.10	25.627
532.00	25.598
531.90	25.556
531.80	25.499
531.70	25.422
531.60	25.387
531.50	25.379
531.40	25.357
531.30	25.316
531.20	25.278
531.10	25.232
531.00	25.205
530.90	25.158
530.80	25.113
530.70	25.048
530.60	25.026
530.50	24.984
530.40	24.924
530.30	24.834
530.20	24.721
530.10	24.615
530.00	24.547
529.90	24.498
529.80	24.433
529.70	24.422
529.60	24.373
529.50	24.322
529.40	24.261
529.30	24.172
529.20	24.084
529.10	23.974
529.00	23.868
528.90	23.786
528.80	23.683
528.70	23.541
528.60	23.433
528.50	23.347
528.40	23.226
528.30	23.138
528.20	23.037
528.10	22.931
528.00	22.831
527.90	22.727
527.80	22.618
527.70	22.495
527.60	22.402
527.50	22.332
527.40	22.217
527.30	22.054
527.20	21.918
527.10	21.795
527.00	21.649
526.90	21.516
526.80	21.379
526.70	21.264
526.60	21.139
526.50	21.035
526.40	20.937
526.30	20.801
526.20	20.663
526.10	20.545
526.00	20.390
525.90	20.232
525.80	20.067
525.70	19.917
525.60	19.792
525.50	19.677
525.40	19.540
525.30	19.456
525.20	19.340
525.10	19.220
525.00	19.113
524.90	19.033
524.80	18.947
524.70	18.850
524.60	18.758
524.50	18.688
524.40	18.599
524.30	18.521
524.20	18.451
524.10	18.370
524.00	18.304
523.90	18.267
523.80	18.232
523.70	18.171
523.60	18.125
523.50	18.097
523.40	18.065
523.30	18.027
523.20	18.014
523.10	17.982
523.00	17.941
522.90	17.920
522.80	17.914
522.70	17.897
522.60	17.919
522.50	17.962
522.40	18.011
522.30	18.016
522.20	18.032
522.10	18.007
522.00	17.971
521.90	17.945
521.80	17.956
521.70	17.963
521.60	17.990
521.50	18.022
521.40	18.066
521.30	18.091
521.20	18.095
521.10	18.098
521.00	18.120
520.90	18.130
520.80	18.140
520.70	18.132
520.60	18.121
520.50	18.101
520.40	18.065
520.30	18.061
520.20	18.074
520.10	18.076
520.00	18.117
519.90	18.153
519.80	18.171
519.70	18.170
519.60	18.186
519.50	18.174
519.40	18.184
519.30	18.204
519.20	18.241
519.10	18.280
519.00	18.289
518.90	18.321
518.80	18.316
518.70	18.309
518.60	18.306
518.50	18.320
518.40	18.330
518.30	18.353
518.20	18.378
518.10	18.400
518.00	18.416
517.90	18.426
517.80	18.416
517.70	18.427
517.60	18.428
517.50	18.452
517.40	18.460
517.30	18.506
517.20	18.512
517.10	18.532
517.00	18.550
516.90	18.586
516.80	18.603
516.70	18.616
516.60	18.626
516.50	18.635
516.40	18.626
516.30	18.640
516.20	18.648
516.10	18.663
516.00	18.691
515.90	18.737
515.80	18.760
515.70	18.757
515.60	18.736
515.50	18.730
515.40	18.739
515.30	18.747
515.20	18.783
515.10	18.830
515.00	18.860
514.90	18.875
514.80	18.895
514.70	18.908
514.60	18.918
514.50	18.936
514.40	18.965
514.30	18.988
514.20	18.999
514.10	19.005
514.00	19.003
513.90	18.989
513.80	18.992
513.70	19.015
513.60	19.057
513.50	19.080
513.40	19.103
513.30	19.141
513.20	19.146
513.10	19.156
513.00	19.172
512.90	19.191
512.80	19.200
512.70	19.206
512.60	19.245
512.50	19.254
512.40	19.258
512.30	19.253
512.20	19.259
512.10	19.282
512.00	19.311
511.90	19.341
511.80	19.343
511.70	19.343
511.60	19.330
511.50	19.320
511.40	19.310
511.30	19.309
511.20	19.345
511.10	19.401
511.00	19.469
510.90	19.530
510.80	19.537
510.70	19.547
510.60	19.545
510.50	19.525
510.40	19.518
510.30	19.523
510.20	19.515
510.10	19.529
510.00	19.532
509.90	19.565
509.80	19.599
509.70	19.626
509.60	19.647
509.50	19.666
509.40	19.659
509.30	19.661
509.20	19.666
509.10	19.654
509.00	19.655
508.90	19.670
508.80	19.690
508.70	19.706
508.60	19.689
508.50	19.681
508.40	19.687
508.30	19.681
508.20	19.682
508.10	19.709
508.00	19.713
507.90	19.700
507.80	19.717
507.70	19.734
507.60	19.743
507.50	19.745
507.40	19.763
507.30	19.770
507.20	19.755
507.10	19.766
507.00	19.756
506.90	19.746
506.80	19.754
506.70	19.775
506.60	19.790
506.50	19.773
506.40	19.738
506.30	19.697
506.20	19.691
506.10	19.672
506.00	19.678
505.90	19.698
505.80	19.692
505.70	19.703
505.60	19.677
505.50	19.642
505.40	19.627
505.30	19.604
505.20	19.596
505.10	19.595
505.00	19.576
504.90	19.554
504.80	19.575
504.70	19.554
504.60	19.532
504.50	19.517
504.40	19.502
504.30	19.490
504.20	19.482
504.10	19.446
504.00	19.426
503.90	19.415
503.80	19.424
503.70	19.413
503.60	19.400
503.50	19.381
503.40	19.371
503.30	19.366
503.20	19.354
503.10	19.321
503.00	19.306
502.90	19.276
502.80	19.263
502.70	19.254
502.60	19.236
502.50	19.226
502.40	19.236
502.30	19.228
502.20	19.236
502.10	19.217
502.00	19.175
501.90	19.140
501.80	19.102
501.70	19.078
501.60	19.081
501.50	19.064
501.40	19.052
501.30	19.054
501.20	19.035
501.10	19.027
501.00	19.033
500.90	19.052
500.80	19.047
500.70	19.078
500.60	19.093
500.50	19.076
500.40	19.035
500.30	18.996
500.20	18.962
500.10	18.931
500.00	18.919

