ｻﾝﾌﾟﾙ:	GaAs_870_920__05_%T_rev.txt
ﾌｧｲﾙ名:	GaAs_870_920__05_%T_rev.txt.UDS
分析日時:	'15:26:23, 09/27/2024
ｵﾍﾟﾚｰﾀ:	OB
ｺﾒﾝﾄ:	'

光度計
ﾓﾃﾞﾙ:	U-3900形分光光度計
ｼﾘｱﾙ No.:	'3004-010
ROM Ver.:	2J25300 07

装置条件
測定ﾓｰﾄﾞ:	波長ｽｷｬﾝ
ﾃﾞｰﾀﾓｰﾄﾞ:	%T
開始波長:	920.00 nm
終了波長:	870.00 nm
ｽｷｬﾝｽﾋﾟｰﾄﾞ:	60 nm/min
ｻﾝﾌﾟﾘﾝｸﾞ間隔:	0.10 nm
初期待ち時間:	0 s
繰り返し周期:	0.0 min
測定回数:	1
測定前ｵｰﾄｾﾞﾛ:	Off
ｽﾘｯﾄ:	0.5 nm
ﾎﾄﾏﾙ電圧:	自動制御
光源切換ﾓｰﾄﾞ:	自動切換
光源切換波長:	340.00 nm
ﾍﾞｰｽﾗｲﾝ設定:	ﾕｰｻﾞ 1
高分解能測定:	Off
D2ﾗﾝﾌﾟ:	On
WIﾗﾝﾌﾟ:	On
R/S反転:	Off
ｾﾙ長:	10.0 mm

ﾋﾟｰｸ検出
検出方法:	Rectangular
感度:	1
しきい値:	0.0100

ﾋﾟｰｸ
ﾋﾟｰｸ No.	開始 (nm)	ﾋﾟｰｸ (nm)	終了 (nm)	高さ (%T)	ﾊﾞﾚｰ (nm)	ﾊﾞﾚｰ (%T)
1	918.90	918.30	917.30	43.170	917.30	44.648
2	917.30	916.60	916.10	43.188	916.10	44.383
3	916.10	915.60	915.10	43.071	915.10	43.875
4	915.10	914.70	914.10	42.232	914.10	44.360
5	914.10	913.20	912.60	42.150	912.60	44.182
6	912.60	912.00	911.50	40.908	911.50	44.521
7	911.50	911.00	910.10	41.159	910.10	43.348
8	910.10	909.40	908.90	41.098	908.90	41.913
9	908.90	908.50	907.70	40.649	907.70	41.999
10	907.70	907.10	906.80	41.375	906.80	42.028
11	906.80	905.50	904.60	38.704	904.60	40.334
12	904.60	902.10	901.60	36.064	901.60	37.321
13	901.60	889.00	888.60	0.151	888.60	0.619
14	888.60	887.30	885.70	-0.272	885.70	0.332
15	885.70	885.10	884.90	-0.048	884.90	0.172
16	884.90	884.00	883.80	-0.096	883.80	0.334
17	883.80	883.00	881.20	-0.332	881.20	0.681
18	881.20	880.60	880.10	-0.292	880.10	0.348
19	880.10	879.70	879.30	0.015	879.30	0.522
20	879.30	878.80	877.80	-0.241	877.80	0.659
21	877.80	876.60	876.10	-0.652	876.10	-0.238
22	876.10	875.90	874.70	-0.427	874.70	0.339
23	874.70	873.80	872.80	-0.185	872.80	0.219
24	872.80	871.90	870.70	-0.530	870.70	0.249

ﾃﾞｰﾀﾘｽﾄ
nm	%T
920.00	42.741
919.90	42.880
919.80	42.836
919.70	43.224
919.60	43.632
919.50	43.754
919.40	43.830
919.30	43.758
919.20	43.618
919.10	43.720
919.00	43.819
918.90	43.942
918.80	43.851
918.70	43.668
918.60	43.220
918.50	43.358
918.40	43.210
918.30	43.170
918.20	43.533
918.10	43.889
918.00	44.078
917.90	44.317
917.80	44.305
917.70	44.626
917.60	44.331
917.50	44.559
917.40	44.571
917.30	44.648
917.20	44.332
917.10	44.198
917.00	44.164
916.90	44.015
916.80	43.814
916.70	43.657
916.60	43.188
916.50	43.399
916.40	43.750
916.30	44.081
916.20	44.341
916.10	44.383
916.00	44.183
915.90	43.730
915.80	43.538
915.70	43.130
915.60	43.071
915.50	43.570
915.40	43.453
915.30	43.758
915.20	43.726
915.10	43.875
915.00	43.642
914.90	43.153
914.80	42.673
914.70	42.232
914.60	42.406
914.50	42.744
914.40	43.393
914.30	43.586
914.20	44.068
914.10	44.360
914.00	43.917
913.90	43.652
913.80	43.147
913.70	42.762
913.60	42.216
913.50	42.414
913.40	42.548
913.30	42.360
913.20	42.150
913.10	42.661
913.00	42.923
912.90	43.425
912.80	43.666
912.70	43.970
912.60	44.182
912.50	44.115
912.40	43.435
912.30	42.831
912.20	41.748
912.10	41.045
912.00	40.908
911.90	41.242
911.80	42.142
911.70	43.301
911.60	44.317
911.50	44.521
911.40	43.752
911.30	42.826
911.20	41.811
911.10	41.558
911.00	41.159
910.90	41.600
910.80	41.829
910.70	42.302
910.60	42.805
910.50	42.764
910.40	42.930
910.30	42.936
910.20	43.219
910.10	43.348
910.00	43.219
909.90	42.777
909.80	41.953
909.70	41.533
909.60	41.452
909.50	41.299
909.40	41.098
909.30	41.194
909.20	41.522
909.10	41.839
909.00	41.911
908.90	41.913
908.80	41.464
908.70	41.314
908.60	40.989
908.50	40.649
908.40	40.789
908.30	40.796
908.20	41.073
908.10	40.880
908.00	41.251
907.90	41.222
907.80	41.648
907.70	41.999
907.60	41.693
907.50	41.622
907.40	41.892
907.30	41.830
907.20	41.563
907.10	41.375
907.00	41.536
906.90	41.413
906.80	42.028
906.70	42.027
906.60	41.880
906.50	41.418
906.40	41.162
906.30	41.145
906.20	40.604
906.10	40.289
906.00	40.454
905.90	40.383
905.80	40.239
905.70	40.361
905.60	39.891
905.50	38.704
905.40	38.831
905.30	38.762
905.20	38.912
905.10	39.163
905.00	39.340
904.90	39.970
904.80	39.933
904.70	40.055
904.60	40.334
904.50	40.032
904.40	40.082
904.30	39.348
904.20	38.963
904.10	38.251
904.00	38.257
903.90	38.527
903.80	38.354
903.70	38.279
903.60	37.763
903.50	37.669
903.40	37.618
903.30	37.603
903.20	37.622
903.10	37.371
903.00	38.000
902.90	37.526
902.80	37.308
902.70	36.665
902.60	36.600
902.50	36.554
902.40	36.584
902.30	36.663
902.20	36.478
902.10	36.064
902.00	36.533
901.90	37.166
901.80	37.011
901.70	37.258
901.60	37.321
901.50	37.014
901.40	36.426
901.30	35.682
901.20	35.716
901.10	35.639
901.00	35.551
900.90	35.181
900.80	35.099
900.70	34.606
900.60	34.247
900.50	34.380
900.40	33.505
900.30	33.761
900.20	33.628
900.10	33.942
900.00	33.849
899.90	33.533
899.80	33.569
899.70	33.629
899.60	33.212
899.50	32.954
899.40	32.514
899.30	31.856
899.20	31.150
899.10	30.756
899.00	30.109
898.90	30.012
898.80	29.849
898.70	30.349
898.60	30.176
898.50	30.113
898.40	30.022
898.30	29.372
898.20	28.600
898.10	28.094
898.00	27.659
897.90	27.152
897.80	26.783
897.70	26.497
897.60	26.210
897.50	26.265
897.40	26.113
897.30	26.283
897.20	26.071
897.10	25.766
897.00	25.669
896.90	25.316
896.80	24.868
896.70	24.488
896.60	24.182
896.50	23.732
896.40	22.980
896.30	22.329
896.20	21.387
896.10	20.980
896.00	20.148
895.90	19.809
895.80	19.795
895.70	19.227
895.60	18.994
895.50	18.403
895.40	17.858
895.30	17.181
895.20	16.646
895.10	16.208
895.00	15.771
894.90	15.413
894.80	14.920
894.70	14.556
894.60	13.803
894.50	13.126
894.40	12.591
894.30	11.795
894.20	11.457
894.10	10.926
894.00	10.633
893.90	10.091
893.80	9.490
893.70	9.186
893.60	8.950
893.50	8.812
893.40	8.460
893.30	8.218
893.20	8.091
893.10	7.621
893.00	7.094
892.90	6.626
892.80	6.404
892.70	6.027
892.60	5.869
892.50	5.686
892.40	5.331
892.30	4.973
892.20	4.876
892.10	4.570
892.00	4.239
891.90	3.945
891.80	3.889
891.70	3.606
891.60	3.318
891.50	3.256
891.40	3.335
891.30	3.167
891.20	3.074
891.10	2.852
891.00	2.799
890.90	2.339
890.80	2.102
890.70	1.819
890.60	1.706
890.50	1.664
890.40	1.663
890.30	1.641
890.20	1.445
890.10	1.374
890.00	1.355
889.90	1.348
889.80	1.167
889.70	1.104
889.60	1.202
889.50	0.997
889.40	0.803
889.30	0.606
889.20	0.404
889.10	0.272
889.00	0.151
888.90	0.317
888.80	0.439
888.70	0.591
888.60	0.619
888.50	0.607
888.40	0.363
888.30	0.396
888.20	0.489
888.10	0.484
888.00	0.274
887.90	0.302
887.80	0.288
887.70	0.232
887.60	-0.062
887.50	-0.099
887.40	-0.250
887.30	-0.272
887.20	-0.173
887.10	-0.108
887.00	-0.037
886.90	0.012
886.80	0.105
886.70	0.184
886.60	-0.057
886.50	0.019
886.40	0.078
886.30	0.125
886.20	-0.101
886.10	0.059
886.00	0.115
885.90	0.131
885.80	0.275
885.70	0.332
885.60	0.265
885.50	0.274
885.40	0.076
885.30	0.110
885.20	-0.021
885.10	-0.048
885.00	-0.038
884.90	0.172
884.80	0.144
884.70	0.160
884.60	0.123
884.50	-0.020
884.40	0.041
884.30	0.160
884.20	0.112
884.10	0.156
884.00	-0.096
883.90	0.219
883.80	0.334
883.70	0.274
883.60	0.104
883.50	0.124
883.40	0.188
883.30	0.031
883.20	-0.143
883.10	-0.278
883.00	-0.332
882.90	-0.328
882.80	-0.104
882.70	0.054
882.60	0.034
882.50	0.106
882.40	0.236
882.30	0.265
882.20	0.092
882.10	-0.011
882.00	0.079
881.90	0.153
881.80	0.171
881.70	0.190
881.60	0.320
881.50	0.310
881.40	0.444
881.30	0.497
881.20	0.681
881.10	0.612
881.00	0.564
880.90	0.319
880.80	0.019
880.70	-0.200
880.60	-0.292
880.50	-0.204
880.40	-0.022
880.30	0.117
880.20	0.299
880.10	0.348
880.00	0.273
879.90	0.129
879.80	0.019
879.70	0.015
879.60	0.228
879.50	0.196
879.40	0.452
879.30	0.522
879.20	0.351
879.10	0.070
879.00	-0.102
878.90	-0.140
878.80	-0.241
878.70	-0.113
878.60	-0.007
878.50	0.256
878.40	0.274
878.30	0.252
878.20	0.208
878.10	0.048
878.00	0.354
877.90	0.621
877.80	0.659
877.70	0.602
877.60	0.513
877.50	0.595
877.40	0.416
877.30	0.247
877.20	0.158
877.10	0.271
877.00	0.182
876.90	-0.039
876.80	-0.283
876.70	-0.636
876.60	-0.652
876.50	-0.519
876.40	-0.243
876.30	-0.260
876.20	-0.273
876.10	-0.238
876.00	-0.369
875.90	-0.427
875.80	-0.427
875.70	-0.342
875.60	-0.292
875.50	-0.199
875.40	-0.087
875.30	-0.066
875.20	0.041
875.10	0.075
875.00	0.272
874.90	0.287
874.80	0.327
874.70	0.339
874.60	0.162
874.50	0.161
874.40	0.230
874.30	0.186
874.20	0.080
874.10	0.064
874.00	-0.122
873.90	-0.181
873.80	-0.185
873.70	-0.132
873.60	-0.101
873.50	0.002
873.40	-0.039
873.30	0.081
873.20	0.038
873.10	0.041
873.00	0.111
872.90	0.166
872.80	0.219
872.70	0.095
872.60	0.053
872.50	0.066
872.40	-0.067
872.30	-0.024
872.20	-0.210
872.10	-0.281
872.00	-0.446
871.90	-0.530
871.80	-0.498
871.70	-0.401
871.60	-0.225
871.50	-0.014
871.40	0.013
871.30	-0.152
871.20	-0.132
871.10	-0.048
871.00	-0.148
870.90	0.188
870.80	0.183
870.70	0.249
870.60	0.232
870.50	0.041
870.40	-0.116
870.30	-0.274
870.20	-0.247
870.10	-0.150
870.00	-0.132

