ｻﾝﾌﾟﾙ:	GaAs_920_870__05%R.txt
ﾌｧｲﾙ名:	GaAs_920_870__05%R.txt.UDS
分析日時:	'14:01:16, 09/27/2024
ｵﾍﾟﾚｰﾀ:	OB
ｺﾒﾝﾄ:	'

光度計
ﾓﾃﾞﾙ:	U-3900形分光光度計
ｼﾘｱﾙ No.:	'3004-010
ROM Ver.:	2J25300 07

装置条件
測定ﾓｰﾄﾞ:	波長ｽｷｬﾝ
ﾃﾞｰﾀﾓｰﾄﾞ:	%R
開始波長:	920.00 nm
終了波長:	870.00 nm
ｽｷｬﾝｽﾋﾟｰﾄﾞ:	60 nm/min
ｻﾝﾌﾟﾘﾝｸﾞ間隔:	0.10 nm
初期待ち時間:	0 s
繰り返し周期:	0.0 min
測定回数:	1
測定前ｵｰﾄｾﾞﾛ:	Off
ｽﾘｯﾄ:	0.5 nm
ﾎﾄﾏﾙ電圧:	自動制御
光源切換ﾓｰﾄﾞ:	自動切換
光源切換波長:	340.00 nm
ﾍﾞｰｽﾗｲﾝ設定:	ﾕｰｻﾞ 1
高分解能測定:	Off
D2ﾗﾝﾌﾟ:	On
WIﾗﾝﾌﾟ:	On
R/S反転:	Off

ﾋﾟｰｸ検出
検出方法:	Rectangular
感度:	1
しきい値:	0.0100

ﾋﾟｰｸ
ﾋﾟｰｸ No.	開始 (nm)	ﾋﾟｰｸ (nm)	終了 (nm)	高さ (%R)	ﾊﾞﾚｰ (nm)	ﾊﾞﾚｰ (%R)
1	920.00	919.40	918.90	27.944	918.90	30.020
2	918.90	918.30	917.50	28.709	917.50	29.857
3	917.50	916.90	915.60	28.904	915.60	30.022
4	915.60	915.40	914.60	29.500	914.60	29.936
5	914.60	913.50	912.90	27.895	912.90	29.396
6	912.90	912.20	911.60	28.341	911.60	29.799
7	911.60	910.40	910.00	28.577	910.00	30.080
8	910.00	909.20	908.50	28.132	908.50	28.982
9	908.50	907.70	906.40	27.724	906.40	29.243
10	906.40	905.70	905.30	28.165	905.30	29.898
11	905.30	904.70	904.20	27.000	904.20	27.750
12	904.20	903.80	902.90	26.951	902.90	27.886
13	902.90	901.70	901.20	26.257	901.20	27.653
14	901.20	900.60	899.80	26.562	899.80	27.421
15	899.80	899.00	898.60	25.336	898.60	26.164
16	898.60	895.90	895.20	23.130	895.20	24.203
17	895.20	894.80	894.30	21.955	894.30	23.454
18	894.30	893.40	892.90	21.114	892.90	22.394
19	892.90	892.20	891.70	21.528	891.70	21.913
20	891.70	890.80	889.60	21.228	889.60	21.967
21	889.60	889.20	888.50	20.538	888.50	22.562
22	888.50	887.20	886.30	21.322	886.30	21.859
23	886.30	885.80	884.80	21.278	884.80	22.191
24	884.80	884.30	883.40	21.057	883.40	22.526
25	883.40	882.80	882.00	21.205	882.00	22.207
26	882.00	881.40	880.80	21.086	880.80	22.552
27	880.80	880.00	879.30	21.201	879.30	22.902
28	879.30	878.60	877.50	21.923	877.50	22.630
29	877.50	876.90	875.70	21.318	875.70	22.174
30	875.70	875.30	874.50	21.071	874.50	22.645
31	874.50	873.80	873.40	21.213	873.40	22.692
32	873.40	872.80	872.20	20.904	872.20	23.050
33	872.20	871.80	871.20	20.857	871.20	23.058

ﾃﾞｰﾀﾘｽﾄ
nm	%R
920.00	29.065
919.90	28.950
919.80	28.766
919.70	28.410
919.60	28.242
919.50	27.985
919.40	27.944
919.30	28.620
919.20	29.158
919.10	29.441
919.00	29.798
918.90	30.020
918.80	29.749
918.70	29.806
918.60	29.332
918.50	29.016
918.40	28.770
918.30	28.709
918.20	28.937
918.10	28.917
918.00	28.955
917.90	29.543
917.80	29.799
917.70	29.630
917.60	29.825
917.50	29.857
917.40	29.782
917.30	29.545
917.20	29.124
917.10	28.986
917.00	28.970
916.90	28.904
916.80	29.071
916.70	29.291
916.60	29.346
916.50	29.500
916.40	29.539
916.30	29.249
916.20	28.992
916.10	29.222
916.00	29.789
915.90	29.849
915.80	29.694
915.70	29.969
915.60	30.022
915.50	29.762
915.40	29.500
915.30	29.600
915.20	29.708
915.10	29.919
915.00	29.859
914.90	29.857
914.80	29.850
914.70	29.796
914.60	29.936
914.50	29.351
914.40	28.815
914.30	28.928
914.20	28.736
914.10	28.938
914.00	28.717
913.90	28.776
913.80	28.795
913.70	28.708
913.60	28.136
913.50	27.895
913.40	28.257
913.30	28.342
913.20	28.788
913.10	29.050
913.00	29.270
912.90	29.396
912.80	29.230
912.70	29.315
912.60	28.685
912.50	28.615
912.40	28.486
912.30	28.532
912.20	28.341
912.10	28.615
912.00	29.002
911.90	29.194
911.80	29.197
911.70	29.681
911.60	29.799
911.50	29.767
911.40	29.671
911.30	29.753
911.20	29.613
911.10	29.754
911.00	29.617
910.90	29.509
910.80	29.185
910.70	29.134
910.60	28.831
910.50	28.669
910.40	28.577
910.30	28.788
910.20	29.164
910.10	29.723
910.00	30.080
909.90	30.026
909.80	29.841
909.70	29.418
909.60	28.918
909.50	28.465
909.40	28.246
909.30	28.186
909.20	28.132
909.10	28.300
909.00	28.596
908.90	28.461
908.80	28.636
908.70	28.773
908.60	28.902
908.50	28.982
908.40	28.894
908.30	28.618
908.20	28.626
908.10	28.179
908.00	28.082
907.90	28.102
907.80	27.944
907.70	27.724
907.60	27.829
907.50	28.115
907.40	28.282
907.30	28.575
907.20	28.705
907.10	28.757
907.00	28.895
906.90	28.846
906.80	28.492
906.70	28.244
906.60	28.575
906.50	28.863
906.40	29.243
906.30	29.243
906.20	28.922
906.10	28.900
906.00	28.501
905.90	28.548
905.80	28.209
905.70	28.165
905.60	28.814
905.50	29.646
905.40	29.791
905.30	29.898
905.20	29.792
905.10	28.765
905.00	28.309
904.90	27.908
904.80	27.224
904.70	27.000
904.60	27.066
904.50	27.598
904.40	27.456
904.30	27.680
904.20	27.750
904.10	27.573
904.00	27.696
903.90	27.352
903.80	26.951
903.70	27.079
903.60	27.149
903.50	27.276
903.40	27.262
903.30	27.285
903.20	27.562
903.10	27.804
903.00	27.827
902.90	27.886
902.80	27.759
902.70	27.559
902.60	27.870
902.50	27.599
902.40	27.328
902.30	27.609
902.20	27.577
902.10	27.391
902.00	27.212
901.90	26.823
901.80	26.480
901.70	26.257
901.60	26.367
901.50	26.771
901.40	27.007
901.30	27.537
901.20	27.653
901.10	27.363
901.00	27.023
900.90	26.829
900.80	26.821
900.70	26.669
900.60	26.562
900.50	26.786
900.40	26.842
900.30	26.991
900.20	27.041
900.10	27.154
900.00	26.944
899.90	27.204
899.80	27.421
899.70	27.358
899.60	26.874
899.50	26.445
899.40	25.927
899.30	25.666
899.20	25.511
899.10	25.594
899.00	25.336
898.90	25.377
898.80	25.874
898.70	25.898
898.60	26.164
898.50	25.711
898.40	25.657
898.30	25.272
898.20	25.513
898.10	25.604
898.00	25.274
897.90	25.448
897.80	25.649
897.70	25.716
897.60	25.727
897.50	25.168
897.40	25.007
897.30	24.540
897.20	24.946
897.10	24.934
897.00	25.116
896.90	24.655
896.80	24.966
896.70	25.072
896.60	24.733
896.50	24.428
896.40	24.053
896.30	23.727
896.20	23.948
896.10	23.664
896.00	23.498
895.90	23.130
895.80	23.212
895.70	23.363
895.60	23.447
895.50	23.360
895.40	23.688
895.30	24.164
895.20	24.203
895.10	23.848
895.00	23.207
894.90	22.422
894.80	21.955
894.70	21.997
894.60	22.178
894.50	22.382
894.40	23.032
894.30	23.454
894.20	23.172
894.10	22.976
894.00	22.508
893.90	22.127
893.80	21.581
893.70	21.461
893.60	21.442
893.50	21.281
893.40	21.114
893.30	21.455
893.20	21.547
893.10	21.626
893.00	21.909
892.90	22.394
892.80	21.959
892.70	21.936
892.60	21.961
892.50	22.091
892.40	21.852
892.30	21.684
892.20	21.528
892.10	21.623
892.00	21.644
891.90	21.867
891.80	21.890
891.70	21.913
891.60	21.574
891.50	21.830
891.40	21.821
891.30	21.623
891.20	21.504
891.10	21.617
891.00	21.528
890.90	21.700
890.80	21.228
890.70	21.363
890.60	21.266
890.50	21.604
890.40	21.913
890.30	22.021
890.20	21.658
890.10	21.439
890.00	21.404
889.90	21.794
889.80	21.886
889.70	21.935
889.60	21.967
889.50	21.907
889.40	20.966
889.30	20.847
889.20	20.538
889.10	20.779
889.00	20.880
888.90	21.266
888.80	21.735
888.70	22.315
888.60	22.264
888.50	22.562
888.40	22.447
888.30	22.280
888.20	22.210
888.10	22.144
888.00	21.774
887.90	21.983
887.80	22.204
887.70	22.458
887.60	22.292
887.50	22.072
887.40	21.560
887.30	21.622
887.20	21.322
887.10	21.500
887.00	21.582
886.90	21.830
886.80	21.731
886.70	21.724
886.60	21.678
886.50	21.689
886.40	21.722
886.30	21.859
886.20	21.736
886.10	21.472
886.00	21.346
885.90	21.409
885.80	21.278
885.70	21.700
885.60	21.830
885.50	22.226
885.40	22.098
885.30	21.879
885.20	21.897
885.10	21.676
885.00	21.832
884.90	22.065
884.80	22.191
884.70	21.948
884.60	21.961
884.50	21.610
884.40	21.209
884.30	21.057
884.20	21.237
884.10	21.940
884.00	22.216
883.90	22.123
883.80	22.298
883.70	22.270
883.60	22.409
883.50	22.418
883.40	22.526
883.30	22.200
883.20	22.317
883.10	22.197
883.00	22.111
882.90	21.688
882.80	21.205
882.70	21.377
882.60	21.708
882.50	21.481
882.40	21.693
882.30	21.903
882.20	21.869
882.10	21.997
882.00	22.207
881.90	21.890
881.80	21.659
881.70	21.407
881.60	21.255
881.50	21.262
881.40	21.086
881.30	21.292
881.20	21.852
881.10	21.979
881.00	22.148
880.90	22.495
880.80	22.552
880.70	22.059
880.60	21.689
880.50	21.678
880.40	21.641
880.30	21.345
880.20	21.254
880.10	21.237
880.00	21.201
879.90	21.378
879.80	22.117
879.70	22.474
879.60	22.408
879.50	22.662
879.40	22.844
879.30	22.902
879.20	22.319
879.10	22.188
879.00	22.127
878.90	21.931
878.80	21.984
878.70	22.154
878.60	21.923
878.50	21.947
878.40	22.352
878.30	22.501
878.20	22.443
878.10	22.350
878.00	22.370
877.90	22.362
877.80	22.272
877.70	22.302
877.60	22.498
877.50	22.630
877.40	22.417
877.30	22.245
877.20	21.862
877.10	21.692
877.00	21.422
876.90	21.318
876.80	21.491
876.70	21.448
876.60	21.915
876.50	21.637
876.40	21.536
876.30	21.525
876.20	21.592
876.10	21.580
876.00	21.730
875.90	21.910
875.80	22.097
875.70	22.174
875.60	21.869
875.50	21.393
875.40	21.212
875.30	21.071
875.20	21.561
875.10	21.779
875.00	22.051
874.90	22.328
874.80	22.497
874.70	22.377
874.60	22.470
874.50	22.645
874.40	22.443
874.30	22.357
874.20	22.113
874.10	21.943
874.00	21.366
873.90	21.217
873.80	21.213
873.70	21.516
873.60	22.112
873.50	22.567
873.40	22.692
873.30	22.083
873.20	21.579
873.10	21.863
873.00	21.412
872.90	21.244
872.80	20.904
872.70	21.286
872.60	21.499
872.50	22.113
872.40	22.457
872.30	22.689
872.20	23.050
872.10	22.817
872.00	22.547
871.90	21.695
871.80	20.857
871.70	21.192
871.60	21.549
871.50	22.098
871.40	22.371
871.30	22.903
871.20	23.058
871.10	22.888
871.00	22.474
870.90	22.004
870.80	22.500
870.70	22.460
870.60	22.576
870.50	22.433
870.40	22.089
870.30	21.943
870.20	21.946
870.10	21.886
870.00	21.816

