ｻﾝﾌﾟﾙ:	STO_420_370__05%T.txt
ﾌｧｲﾙ名:	STO_420_370__05%T.txt.UDS
分析日時:	'13:50:11, 09/27/2024
ｵﾍﾟﾚｰﾀ:	OB
ｺﾒﾝﾄ:	'

光度計
ﾓﾃﾞﾙ:	U-3900形分光光度計
ｼﾘｱﾙ No.:	'3004-010
ROM Ver.:	2J25300 07

装置条件
測定ﾓｰﾄﾞ:	波長ｽｷｬﾝ
ﾃﾞｰﾀﾓｰﾄﾞ:	%T
開始波長:	420.00 nm
終了波長:	370.00 nm
ｽｷｬﾝｽﾋﾟｰﾄﾞ:	60 nm/min
ｻﾝﾌﾟﾘﾝｸﾞ間隔:	0.10 nm
初期待ち時間:	0 s
繰り返し周期:	0.0 min
測定回数:	1
測定前ｵｰﾄｾﾞﾛ:	Off
ｽﾘｯﾄ:	0.5 nm
ﾎﾄﾏﾙ電圧:	自動制御
光源切換ﾓｰﾄﾞ:	自動切換
光源切換波長:	340.00 nm
ﾍﾞｰｽﾗｲﾝ設定:	ﾕｰｻﾞ 1
高分解能測定:	Off
D2ﾗﾝﾌﾟ:	On
WIﾗﾝﾌﾟ:	On
R/S反転:	Off
ｾﾙ長:	10.0 mm

ﾋﾟｰｸ検出
検出方法:	Rectangular
感度:	1
しきい値:	0.0100

ﾋﾟｰｸ
ﾋﾟｰｸ No.	開始 (nm)	ﾋﾟｰｸ (nm)	終了 (nm)	高さ (%T)	ﾊﾞﾚｰ (nm)	ﾊﾞﾚｰ (%T)
1	420.00	418.80	418.40	66.376	418.40	66.809
2	418.40	417.10	415.90	66.397	415.90	66.694
3	415.90	415.40	414.90	66.212	414.90	66.773
4	414.90	413.80	413.40	66.366	413.40	66.692
5	413.40	412.10	411.70	65.985	411.70	66.256
6	411.70	408.90	407.70	65.350	407.70	65.826
7	407.70	406.00	405.60	65.140	405.60	65.221
8	405.60	381.70	380.40	0.020	380.40	0.031
9	380.40	376.10	374.50	-0.014	374.50	0.009
10	374.50	373.90	372.50	-0.010	372.50	0.004
11	372.50	371.80	370.90	-0.008	370.90	0.009

ﾃﾞｰﾀﾘｽﾄ
nm	%T
420.00	67.021
419.90	66.864
419.80	66.741
419.70	66.679
419.60	66.725
419.50	66.780
419.40	66.834
419.30	66.839
419.20	66.856
419.10	66.732
419.00	66.539
418.90	66.492
418.80	66.376
418.70	66.526
418.60	66.632
418.50	66.694
418.40	66.809
418.30	66.762
418.20	66.712
418.10	66.693
418.00	66.697
417.90	66.663
417.80	66.657
417.70	66.607
417.60	66.511
417.50	66.456
417.40	66.500
417.30	66.559
417.20	66.461
417.10	66.397
417.00	66.479
416.90	66.427
416.80	66.427
416.70	66.459
416.60	66.512
416.50	66.597
416.40	66.667
416.30	66.638
416.20	66.630
416.10	66.583
416.00	66.608
415.90	66.694
415.80	66.669
415.70	66.542
415.60	66.418
415.50	66.268
415.40	66.212
415.30	66.268
415.20	66.383
415.10	66.517
415.00	66.770
414.90	66.773
414.80	66.770
414.70	66.670
414.60	66.434
414.50	66.417
414.40	66.407
414.30	66.406
414.20	66.408
414.10	66.407
414.00	66.406
413.90	66.402
413.80	66.366
413.70	66.392
413.60	66.500
413.50	66.555
413.40	66.692
413.30	66.613
413.20	66.455
413.10	66.407
413.00	66.275
412.90	66.233
412.80	66.221
412.70	66.193
412.60	66.189
412.50	66.139
412.40	66.049
412.30	66.060
412.20	66.031
412.10	65.985
412.00	66.074
411.90	66.115
411.80	66.168
411.70	66.256
411.60	66.237
411.50	66.152
411.40	66.171
411.30	66.213
411.20	66.138
411.10	66.040
411.00	65.946
410.90	65.954
410.80	66.046
410.70	66.031
410.60	66.094
410.50	65.993
410.40	65.946
410.30	65.971
410.20	65.990
410.10	65.968
410.00	65.845
409.90	65.816
409.80	65.848
409.70	65.896
409.60	65.835
409.50	65.774
409.40	65.657
409.30	65.606
409.20	65.633
409.10	65.496
409.00	65.411
408.90	65.350
408.80	65.428
408.70	65.638
408.60	65.597
408.50	65.511
408.40	65.505
408.30	65.573
408.20	65.626
408.10	65.697
408.00	65.665
407.90	65.711
407.80	65.795
407.70	65.826
407.60	65.813
407.50	65.740
407.40	65.713
407.30	65.698
407.20	65.651
407.10	65.562
407.00	65.476
406.90	65.440
406.80	65.353
406.70	65.305
406.60	65.311
406.50	65.269
406.40	65.342
406.30	65.279
406.20	65.157
406.10	65.151
406.00	65.140
405.90	65.152
405.80	65.214
405.70	65.215
405.60	65.221
405.50	65.215
405.40	65.144
405.30	64.950
405.20	64.872
405.10	64.737
405.00	64.839
404.90	64.847
404.80	64.823
404.70	64.808
404.60	64.623
404.50	64.525
404.40	64.451
404.30	64.416
404.20	64.425
404.10	64.486
404.00	64.540
403.90	64.455
403.80	64.458
403.70	64.278
403.60	64.174
403.50	64.133
403.40	64.004
403.30	63.965
403.20	63.892
403.10	63.835
403.00	63.806
402.90	63.796
402.80	63.703
402.70	63.630
402.60	63.564
402.50	63.522
402.40	63.466
402.30	63.371
402.20	63.188
402.10	63.162
402.00	63.002
401.90	62.863
401.80	62.776
401.70	62.678
401.60	62.687
401.50	62.788
401.40	62.780
401.30	62.652
401.20	62.498
401.10	62.367
401.00	62.219
400.90	62.154
400.80	62.126
400.70	62.102
400.60	62.108
400.50	62.092
400.40	62.010
400.30	61.863
400.20	61.720
400.10	61.608
400.00	61.469
399.90	61.332
399.80	61.122
399.70	60.980
399.60	60.903
399.50	60.812
399.40	60.767
399.30	60.606
399.20	60.458
399.10	60.379
399.00	60.263
398.90	60.009
398.80	59.826
398.70	59.581
398.60	59.356
398.50	59.219
398.40	59.021
398.30	58.908
398.20	58.854
398.10	58.733
398.00	58.591
397.90	58.421
397.80	58.212
397.70	58.036
397.60	57.824
397.50	57.619
397.40	57.521
397.30	57.398
397.20	57.250
397.10	57.077
397.00	56.786
396.90	56.389
396.80	56.063
396.70	55.664
396.60	55.278
396.50	54.990
396.40	54.739
396.30	54.501
396.20	54.234
396.10	54.017
396.00	53.661
395.90	53.265
395.80	52.911
395.70	52.635
395.60	52.383
395.50	52.029
395.40	51.689
395.30	51.369
395.20	50.978
395.10	50.657
395.00	50.306
394.90	49.964
394.80	49.532
394.70	49.084
394.60	48.570
394.50	48.046
394.40	47.513
394.30	47.002
394.20	46.491
394.10	46.092
394.00	45.691
393.90	45.219
393.80	44.692
393.70	44.190
393.60	43.661
393.50	43.245
393.40	42.757
393.30	42.251
393.20	41.818
393.10	41.347
393.00	40.746
392.90	40.119
392.80	39.454
392.70	38.889
392.60	38.330
392.50	37.801
392.40	37.270
392.30	36.777
392.20	36.224
392.10	35.705
392.00	35.027
391.90	34.352
391.80	33.715
391.70	33.127
391.60	32.530
391.50	31.958
391.40	31.357
391.30	30.745
391.20	30.139
391.10	29.560
391.00	28.887
390.90	28.257
390.80	27.592
390.70	27.027
390.60	26.394
390.50	25.808
390.40	25.190
390.30	24.563
390.20	23.946
390.10	23.380
390.00	22.700
389.90	21.982
389.80	21.331
389.70	20.683
389.60	20.025
389.50	19.384
389.40	18.725
389.30	18.187
389.20	17.598
389.10	16.996
389.00	16.377
388.90	15.791
388.80	15.138
388.70	14.564
388.60	13.951
388.50	13.346
388.40	12.761
388.30	12.200
388.20	11.651
388.10	11.151
388.00	10.614
387.90	10.139
387.80	9.608
387.70	9.095
387.60	8.570
387.50	8.095
387.40	7.591
387.30	7.161
387.20	6.708
387.10	6.292
387.00	5.880
386.90	5.481
386.80	5.055
386.70	4.683
386.60	4.332
386.50	4.018
386.40	3.681
386.30	3.378
386.20	3.079
386.10	2.811
386.00	2.539
385.90	2.293
385.80	2.067
385.70	1.871
385.60	1.672
385.50	1.501
385.40	1.333
385.30	1.190
385.20	1.053
385.10	0.936
385.00	0.830
384.90	0.729
384.80	0.626
384.70	0.544
384.60	0.479
384.50	0.423
384.40	0.366
384.30	0.311
384.20	0.269
384.10	0.227
384.00	0.198
383.90	0.164
383.80	0.140
383.70	0.119
383.60	0.100
383.50	0.086
383.40	0.075
383.30	0.063
383.20	0.055
383.10	0.050
383.00	0.047
382.90	0.043
382.80	0.039
382.70	0.030
382.60	0.029
382.50	0.026
382.40	0.026
382.30	0.028
382.20	0.024
382.10	0.021
382.00	0.021
381.90	0.022
381.80	0.023
381.70	0.020
381.60	0.020
381.50	0.021
381.40	0.022
381.30	0.023
381.20	0.023
381.10	0.022
381.00	0.019
380.90	0.021
380.80	0.023
380.70	0.022
380.60	0.024
380.50	0.027
380.40	0.031
380.30	0.030
380.20	0.028
380.10	0.024
380.00	0.014
379.90	0.010
379.80	0.009
379.70	0.003
379.60	0.002
379.50	0.003
379.40	0.004
379.30	0.004
379.20	0.004
379.10	0.002
379.00	0.005
378.90	0.004
378.80	-0.001
378.70	-0.003
378.60	-0.006
378.50	-0.008
378.40	-0.002
378.30	-0.004
378.20	0.001
378.10	0.001
378.00	-0.002
377.90	-0.003
377.80	-0.005
377.70	-0.009
377.60	-0.008
377.50	-0.008
377.40	-0.007
377.30	-0.008
377.20	-0.006
377.10	-0.008
377.00	-0.005
376.90	-0.006
376.80	-0.003
376.70	-0.002
376.60	-0.002
376.50	-0.002
376.40	-0.003
376.30	-0.004
376.20	-0.009
376.10	-0.014
376.00	-0.013
375.90	-0.013
375.80	-0.008
375.70	-0.003
375.60	0.001
375.50	0.004
375.40	0.002
375.30	0.000
375.20	-0.001
375.10	-0.005
375.00	-0.005
374.90	0.001
374.80	0.004
374.70	0.004
374.60	0.009
374.50	0.009
374.40	0.007
374.30	0.005
374.20	0.001
374.10	-0.004
374.00	-0.009
373.90	-0.010
373.80	-0.010
373.70	-0.009
373.60	-0.006
373.50	-0.003
373.40	0.002
373.30	0.000
373.20	0.001
373.10	-0.001
373.00	0.000
372.90	0.000
372.80	0.000
372.70	-0.001
372.60	-0.001
372.50	0.004
372.40	0.003
372.30	0.004
372.20	0.001
372.10	-0.004
372.00	-0.005
371.90	-0.008
371.80	-0.008
371.70	-0.007
371.60	-0.006
371.50	-0.004
371.40	-0.002
371.30	0.001
371.20	0.003
371.10	0.006
371.00	0.007
370.90	0.009
370.80	0.009
370.70	0.005
370.60	0.001
370.50	-0.005
370.40	-0.007
370.30	-0.007
370.20	-0.006
370.10	-0.005
370.00	-0.004

