ｻﾝﾌﾟﾙ:	Sto_370_420__05%R.txt
ﾌｧｲﾙ名:	Sto_370_420__05%R.txt.UDS
分析日時:	'14:06:42, 09/27/2024
ｵﾍﾟﾚｰﾀ:	OB
ｺﾒﾝﾄ:	'

光度計
ﾓﾃﾞﾙ:	U-3900形分光光度計
ｼﾘｱﾙ No.:	'3004-010
ROM Ver.:	2J25300 07

装置条件
測定ﾓｰﾄﾞ:	波長ｽｷｬﾝ
ﾃﾞｰﾀﾓｰﾄﾞ:	%R
開始波長:	420.00 nm
終了波長:	370.00 nm
ｽｷｬﾝｽﾋﾟｰﾄﾞ:	60 nm/min
ｻﾝﾌﾟﾘﾝｸﾞ間隔:	0.10 nm
初期待ち時間:	0 s
繰り返し周期:	0.0 min
測定回数:	1
測定前ｵｰﾄｾﾞﾛ:	Off
ｽﾘｯﾄ:	0.5 nm
ﾎﾄﾏﾙ電圧:	自動制御
光源切換ﾓｰﾄﾞ:	自動切換
光源切換波長:	340.00 nm
ﾍﾞｰｽﾗｲﾝ設定:	ﾕｰｻﾞ 1
高分解能測定:	Off
D2ﾗﾝﾌﾟ:	On
WIﾗﾝﾌﾟ:	On
R/S反転:	Off

ﾋﾟｰｸ検出
検出方法:	Rectangular
感度:	1
しきい値:	0.0100

ﾋﾟｰｸ
ﾋﾟｰｸ No.	開始 (nm)	ﾋﾟｰｸ (nm)	終了 (nm)	高さ (%R)	ﾊﾞﾚｰ (nm)	ﾊﾞﾚｰ (%R)
1	420.00	418.80	417.30	29.643	417.30	29.936
2	417.30	416.90	416.50	29.721	416.50	29.906
3	416.50	416.00	414.90	29.718	414.90	29.916
4	414.90	414.50	414.00	29.784	414.00	30.116
5	414.00	413.60	413.00	29.987	413.00	30.130
6	413.00	411.50	410.90	29.897	410.90	30.255
7	410.90	410.50	409.50	29.835	409.50	30.232
8	409.50	409.10	408.60	29.970	408.60	30.107
9	408.60	408.30	407.80	29.999	407.80	30.224
10	407.80	407.10	405.90	29.950	405.90	30.120
11	405.90	404.60	404.20	29.920	404.20	30.031
12	404.20	403.20	402.80	29.819	402.80	30.030
13	402.80	402.20	401.70	29.745	401.70	29.851
14	401.70	385.90	384.70	19.703	384.70	19.980
15	384.70	384.30	383.70	19.780	383.70	20.073
16	383.70	383.20	381.40	19.882	381.40	20.170
17	381.40	381.10	380.60	20.049	380.60	20.187
18	380.60	380.20	378.10	20.101	378.10	20.408
19	378.10	377.50	376.20	20.295	376.20	20.570
20	376.20	375.20	374.70	20.498	374.70	20.719
21	374.70	374.30	370.00	20.501	370.00	21.052

ﾃﾞｰﾀﾘｽﾄ
nm	%R
420.00	29.855
419.90	29.765
419.80	29.722
419.70	29.666
419.60	29.657
419.50	29.672
419.40	29.718
419.30	29.749
419.20	29.749
419.10	29.712
419.00	29.674
418.90	29.655
418.80	29.643
418.70	29.663
418.60	29.676
418.50	29.658
418.40	29.688
418.30	29.689
418.20	29.698
418.10	29.708
418.00	29.752
417.90	29.766
417.80	29.811
417.70	29.908
417.60	29.884
417.50	29.896
417.40	29.895
417.30	29.936
417.20	29.879
417.10	29.783
417.00	29.757
416.90	29.721
416.80	29.743
416.70	29.788
416.60	29.883
416.50	29.906
416.40	29.880
416.30	29.898
416.20	29.819
416.10	29.781
416.00	29.718
415.90	29.758
415.80	29.804
415.70	29.827
415.60	29.866
415.50	29.850
415.40	29.857
415.30	29.842
415.20	29.861
415.10	29.912
415.00	29.909
414.90	29.916
414.80	29.872
414.70	29.846
414.60	29.793
414.50	29.784
414.40	29.853
414.30	29.897
414.20	30.005
414.10	30.079
414.00	30.116
413.90	30.084
413.80	29.992
413.70	29.995
413.60	29.987
413.50	29.996
413.40	30.011
413.30	30.055
413.20	30.062
413.10	30.066
413.00	30.130
412.90	30.083
412.80	30.085
412.70	30.047
412.60	30.034
412.50	30.000
412.40	29.934
412.30	29.980
412.20	29.951
412.10	29.933
412.00	29.990
411.90	30.017
411.80	29.991
411.70	29.941
411.60	29.910
411.50	29.897
411.40	29.961
411.30	30.011
411.20	30.080
411.10	30.106
411.00	30.161
410.90	30.255
410.80	30.113
410.70	29.943
410.60	29.878
410.50	29.835
410.40	29.846
410.30	29.874
410.20	29.898
410.10	29.934
410.00	30.045
409.90	30.089
409.80	30.165
409.70	30.123
409.60	30.174
409.50	30.232
409.40	30.146
409.30	30.056
409.20	29.999
409.10	29.970
409.00	30.036
408.90	30.086
408.80	30.070
408.70	30.078
408.60	30.107
408.50	30.043
408.40	30.046
408.30	29.999
408.20	30.014
408.10	30.016
408.00	30.080
407.90	30.145
407.80	30.224
407.70	30.222
407.60	30.221
407.50	30.215
407.40	30.144
407.30	30.088
407.20	30.018
407.10	29.950
407.00	29.986
406.90	30.023
406.80	30.011
406.70	29.994
406.60	30.037
406.50	29.962
406.40	30.018
406.30	30.062
406.20	30.036
406.10	30.055
406.00	30.086
405.90	30.120
405.80	30.112
405.70	30.084
405.60	30.101
405.50	30.057
405.40	30.035
405.30	30.073
405.20	30.127
405.10	30.079
405.00	30.023
404.90	30.009
404.80	29.977
404.70	29.938
404.60	29.920
404.50	29.933
404.40	29.926
404.30	30.000
404.20	30.031
404.10	29.982
404.00	29.958
403.90	29.919
403.80	29.938
403.70	29.904
403.60	29.869
403.50	29.843
403.40	29.828
403.30	29.821
403.20	29.819
403.10	29.891
403.00	29.899
402.90	29.976
402.80	30.030
402.70	29.996
402.60	29.964
402.50	29.903
402.40	29.869
402.30	29.758
402.20	29.745
402.10	29.779
402.00	29.771
401.90	29.840
401.80	29.815
401.70	29.851
401.60	29.830
401.50	29.784
401.40	29.775
401.30	29.723
401.20	29.682
401.10	29.582
401.00	29.533
400.90	29.461
400.80	29.414
400.70	29.377
400.60	29.352
400.50	29.371
400.40	29.317
400.30	29.264
400.20	29.257
400.10	29.204
400.00	29.137
399.90	29.153
399.80	29.181
399.70	29.146
399.60	29.190
399.50	29.203
399.40	29.213
399.30	29.172
399.20	29.151
399.10	29.182
399.00	29.136
398.90	29.032
398.80	28.979
398.70	28.895
398.60	28.823
398.50	28.777
398.40	28.714
398.30	28.650
398.20	28.665
398.10	28.616
398.00	28.547
397.90	28.476
397.80	28.395
397.70	28.357
397.60	28.335
397.50	28.312
397.40	28.243
397.30	28.187
397.20	28.167
397.10	28.150
397.00	28.061
396.90	27.985
396.80	27.975
396.70	27.887
396.60	27.784
396.50	27.729
396.40	27.671
396.30	27.577
396.20	27.524
396.10	27.484
396.00	27.342
395.90	27.225
395.80	27.141
395.70	27.082
395.60	26.983
395.50	26.910
395.40	26.840
395.30	26.731
395.20	26.585
395.10	26.465
395.00	26.371
394.90	26.266
394.80	26.157
394.70	26.098
394.60	25.975
394.50	25.845
394.40	25.756
394.30	25.674
394.20	25.596
394.10	25.485
394.00	25.365
393.90	25.220
393.80	25.074
393.70	24.963
393.60	24.865
393.50	24.767
393.40	24.687
393.30	24.638
393.20	24.561
393.10	24.431
393.00	24.287
392.90	24.100
392.80	23.960
392.70	23.790
392.60	23.680
392.50	23.510
392.40	23.346
392.30	23.252
392.20	23.168
392.10	23.098
392.00	23.015
391.90	22.955
391.80	22.888
391.70	22.799
391.60	22.694
391.50	22.494
391.40	22.339
391.30	22.193
391.20	22.116
391.10	22.044
391.00	21.924
390.90	21.825
390.80	21.756
390.70	21.677
390.60	21.594
390.50	21.508
390.40	21.426
390.30	21.345
390.20	21.352
390.10	21.266
390.00	21.164
389.90	21.035
389.80	20.948
389.70	20.892
389.60	20.785
389.50	20.684
389.40	20.645
389.30	20.618
389.20	20.664
389.10	20.622
389.00	20.537
388.90	20.381
388.80	20.342
388.70	20.244
388.60	20.166
388.50	20.110
388.40	20.170
388.30	20.186
388.20	20.193
388.10	20.119
388.00	20.016
387.90	19.898
387.80	19.859
387.70	19.815
387.60	19.812
387.50	19.787
387.40	19.828
387.30	19.848
387.20	19.828
387.10	19.777
387.00	19.817
386.90	19.756
386.80	19.756
386.70	19.749
386.60	19.743
386.50	19.753
386.40	19.761
386.30	19.773
386.20	19.774
386.10	19.728
386.00	19.718
385.90	19.703
385.80	19.745
385.70	19.739
385.60	19.815
385.50	19.794
385.40	19.769
385.30	19.768
385.20	19.774
385.10	19.777
385.00	19.803
384.90	19.876
384.80	19.944
384.70	19.980
384.60	19.959
384.50	19.893
384.40	19.837
384.30	19.780
384.20	19.817
384.10	19.814
384.00	19.826
383.90	19.915
383.80	20.034
383.70	20.073
383.60	20.045
383.50	19.997
383.40	19.947
383.30	19.955
383.20	19.882
383.10	19.922
383.00	19.949
382.90	20.031
382.80	20.113
382.70	20.108
382.60	20.037
382.50	20.003
382.40	20.011
382.30	20.038
382.20	20.044
382.10	20.060
382.00	20.073
381.90	20.085
381.80	20.120
381.70	20.158
381.60	20.150
381.50	20.161
381.40	20.170
381.30	20.133
381.20	20.084
381.10	20.049
381.00	20.058
380.90	20.077
380.80	20.121
380.70	20.153
380.60	20.187
380.50	20.126
380.40	20.158
380.30	20.117
380.20	20.101
380.10	20.109
380.00	20.152
379.90	20.190
379.80	20.191
379.70	20.191
379.60	20.239
379.50	20.247
379.40	20.201
379.30	20.182
379.20	20.239
379.10	20.224
379.00	20.301
378.90	20.302
378.80	20.319
378.70	20.283
378.60	20.261
378.50	20.278
378.40	20.267
378.30	20.272
378.20	20.352
378.10	20.408
378.00	20.401
377.90	20.394
377.80	20.389
377.70	20.319
377.60	20.323
377.50	20.295
377.40	20.325
377.30	20.365
377.20	20.371
377.10	20.396
377.00	20.407
376.90	20.393
376.80	20.430
376.70	20.442
376.60	20.493
376.50	20.536
376.40	20.563
376.30	20.554
376.20	20.570
376.10	20.555
376.00	20.538
375.90	20.562
375.80	20.552
375.70	20.547
375.60	20.541
375.50	20.522
375.40	20.532
375.30	20.516
375.20	20.498
375.10	20.553
375.00	20.637
374.90	20.675
374.80	20.717
374.70	20.719
374.60	20.659
374.50	20.623
374.40	20.567
374.30	20.501
374.20	20.541
374.10	20.596
374.00	20.649
373.90	20.710
373.80	20.719
373.70	20.722
373.60	20.733
373.50	20.714
373.40	20.760
373.30	20.781
373.20	20.773
373.10	20.814
373.00	20.791
372.90	20.738
372.80	20.791
372.70	20.815
372.60	20.779
372.50	20.828
372.40	20.842
372.30	20.864
372.20	20.877
372.10	20.880
372.00	20.899
371.90	20.897
371.80	20.884
371.70	20.864
371.60	20.863
371.50	20.861
371.40	20.914
371.30	20.945
371.20	20.979
371.10	21.027
371.00	21.063
370.90	21.090
370.80	21.063
370.70	21.070
370.60	21.092
370.50	21.138
370.40	21.182
370.30	21.153
370.20	21.137
370.10	21.095
370.00	21.052

